Corrected dielectric energy   =     -0.013606504
Total C-PCM charge            =     -0.000000000
C-PCM corrected charges:
     0.000715522
     0.000269254
     0.000461935
     0.002127799
     0.002213471
    -0.001531991
    -0.001932243
    -0.000680247
    -0.000001168
     0.000110088
     0.000692490
    -0.000586000
     0.000335704
    -0.000033658
    -0.001690394
    -0.000472280
    -0.000008583
    -0.000310160
    -0.000071942
    -0.001289563
    -0.000066721
    -0.000591705
    -0.000727890
    -0.000002318
    -0.001621282
     0.001362808
     0.002254810
    -0.000000002
     0.001478867
     0.002304852
    -0.000009159
     0.000997248
     0.001432820
    -0.000539582
    -0.000000001
     0.001268355
     0.001722692
     0.000032460
    -0.000002438
     0.001347133
     0.002043246
     0.001370119
     0.001782127
    -0.000121224
    -0.000301836
     0.000691613
     0.001687268
    -0.001440081
     0.000940357
     0.001765514
    -0.001353522
     0.000891903
     0.001799053
     0.000969231
     0.000341807
    -0.000000030
    -0.002032598
    -0.000000864
    -0.001752380
    -0.000015582
     0.000833756
     0.000872561
     0.000147368
    -0.000074035
     0.001103865
     0.001218421
     0.000635207
     0.000343817
     0.001368026
     0.001678400
     0.001372167
     0.001666825
    -0.000000003
    -0.000000015
     0.001156479
     0.001096611
    -0.000139936
     0.000264826
    -0.000057516
     0.000721781
     0.000353679
    -0.000000028
    -0.000000658
     0.001545980
    -0.000007202
     0.001761204
    -0.000110693
     0.001930077
     0.001946681
     0.001801361
     0.002280816
     0.001849052
     0.002336337
     0.001661987
     0.002040268
    -0.000000568
     0.001823065
     0.002182312
    -0.000042882
    -0.000347200
    -0.000004335
    -0.001038544
    -0.000063836
    -0.002249176
    -0.002310143
    -0.000000003
    -0.000340401
    -0.000051362
    -0.001526789
     0.000244478
     0.000400137
    -0.000593123
    -0.000000340
     0.000543391
    -0.000018358
     0.000574803
    -0.000000570
    -0.000211514
    -0.000249211
    -0.000362288
    -0.000292900
     0.000043298
    -0.000275063
     0.000000194
    -0.000018710
     0.000106422
    -0.000524833
     0.000000066
     0.000000084
    -0.000000023
     0.000000021
     0.000023658
    -0.000000368
     0.000125570
     0.000131913
    -0.000000016
    -0.000000010
     0.000000001
    -0.000090656
     0.000017801
    -0.000076334
     0.000000002
    -0.000000142
    -0.000566810
    -0.000615039
    -0.000370382
    -0.000453959
    -0.000597073
    -0.000648149
    -0.000561557
    -0.000599197
    -0.000000005
    -0.000000002
    -0.000693135
    -0.000924462
     0.000056848
    -0.000436899
    -0.000560725
    -0.000771566
    -0.000478537
    -0.000684530
    -0.000000142
    -0.000010189
    -0.000495000
     0.000188074
    -0.000066377
    -0.000498105
     0.000000427
    -0.000099115
     0.000000024
    -0.000009167
     0.000000082
     0.000063153
     0.000000017
    -0.000509896
    -0.000785097
    -0.000666742
    -0.000787027
    -0.000781456
    -0.000120675
    -0.000690136
    -0.000533982
    -0.000386614
    -0.000000013
    -0.000713381
    -0.001375092
    -0.000523807
    -0.000218886
     0.000002812
     0.000014203
     0.000291789
     0.000000019
    -0.000004235
     0.000000001
     0.000003480
     0.000007087
    -0.000682737
     0.000000004
     0.000266793
     0.000000056
    -0.000207388
     0.000040891
     0.000041226
    -0.000000003
     0.000003559
     0.000019470
    -0.000318369
    -0.000000001
     0.000104540
    -0.000004930
    -0.000012238
     0.000097808
    -0.000000050
    -0.000555857
    -0.000864039
     0.000063686
     0.000174801
    -0.000156521
    -0.000759127
    -0.000015478
    -0.000287419
     0.000000000
    -0.000640121
    -0.000151224
    -0.000078398
    -0.000452864
    -0.000583312
    -0.000006016
    -0.000514591
    -0.000079397
    -0.000154712
    -0.000787499
     0.001053216
     0.000906774
     0.000634188
     0.000424350
     0.002576304
     0.002505713
     0.002664263
     0.000005777
     0.002510905
    -0.000000010
     0.002712467
     0.000173021
    -0.000025758
     0.002544446
     0.003053621
    -0.000000002
     0.002518431
     0.002868823
     0.002635490
     0.002811259
     0.002627878
     0.002679547
     0.001892548
     0.002662395
     0.002319506
     0.000764216
     0.002602228
     0.001546548
     0.002437776
     0.002788919
     0.002397925
     0.002675766
     0.000949904
    -0.000002316
     0.002103163
     0.002076523
    -0.000005501
     0.001992443
     0.001867871
     0.002293594
     0.002788059
     0.002283585
     0.002753136
     0.001836436
     0.002807582
     0.001043937
     0.002785340
     0.000101566
     0.002404244
     0.002568167
    -0.000005415
     0.002343773
     0.002404614
     0.002444185
     0.003087773
     0.002429540
     0.003004837
     0.000479486
     0.002760855
     0.000072334
    -0.000502809
     0.002738077
     0.000018230
     0.001220598
     0.000667881
     0.001522748
     0.001475806
     0.000203905
    -0.000004341
     0.001371341
     0.001148799
     0.001887321
     0.002083564
     0.001882354
     0.002074704
     0.002107755
     0.002320431
     0.002063289
     0.002306054
     0.002244203
     0.002844289
    -0.000111188
     0.002787506
     0.001929154
     0.001161859
     0.001692489
     0.000020221
     0.002734967
     0.002663297
    -0.000008417
     0.002031628
    -0.000000011
     0.001893169
     0.002417198
     0.002393765
     0.002480368
     0.002735587
     0.002448617
     0.002677189
    -0.000000407
     0.002337127
     0.002440500
     0.002256126
     0.002313689
     0.002602481
     0.002868765
    -0.000000009
     0.002347108
     0.002799052
    -0.000001611
     0.002833312
    -0.000000014
     0.002828164
     0.002141962
    -0.000004604
     0.002403418
     0.001865957
     0.001638112
    -0.000000001
     0.002278993
     0.000614743
     0.002477409
     0.003308827
     0.002474421
     0.003289397
     0.000117091
     0.000147017
    -0.000000002
    -0.000000001
    -0.000410316
     0.000107664
    -0.000023033
     0.000000000
    -0.000207505
     0.000000001
    -0.000262059
     0.000002172
    -0.000013944
    -0.000000000
    -0.000000001
    -0.000003953
    -0.000175467
     0.000000000
    -0.000174233
    -0.000000032
    -0.000000019
     0.000183572
     0.000402493
     0.000145121
     0.000420981
     0.000317499
     0.000499621
     0.000237263
     0.000432925
    -0.000024359
     0.000696477
    -0.000220868
     0.000099383
     0.000209326
     0.000118884
    -0.000084968
     0.000642032
    -0.000000105
    -0.000000000
    -0.000000119
    -0.000012031
    -0.000367549
     0.000655564
    -0.000099750
     0.000705739
     0.000488231
     0.000317554
     0.000261084
     0.000459568
     0.000023703
    -0.000000039
     0.000206748
     0.000000338
    -0.000000135
     0.000006415
    -0.000000000
    -0.000003870
    -0.000025755
     0.000000002
    -0.000121040
    -0.000000080
    -0.000268699
     0.000000000
    -0.000000184
     0.000099066
    -0.000016937
     0.000000001
    -0.000000002
     0.000000020
     0.000351501
     0.000204314
    -0.000050449
     0.000000788
     0.000003358
     0.000000006
     0.000222582
     0.000187271
    -0.000122114
     0.000822489
    -0.000010136
     0.000029663
    -0.000404194
     0.000266181
    -0.000161165
     0.000440874
    -0.000272760
     0.000187984
     0.000174018
    -0.000405212
    -0.000220477
     0.000317390
     0.000104025
    -0.000000002
     0.000527435
     0.000260067
     0.000004213
     0.000048862
     0.000477039
    -0.000078777
    -0.000000507
    -0.000006434
    -0.000000033
     0.000000622
    -0.000004361
    -0.000013271
    -0.000000294
     0.000008120
    -0.000301329
    -0.000136315
     0.000000112
    -0.000482442
    -0.000000060
    -0.000000004
     0.000134707
     0.000000003
    -0.000000122
    -0.000138782
    -0.000000001
     0.000004532
    -0.000211023
    -0.000018136
    -0.000333144
    -0.000108440
     0.000399608
     0.000490400
     0.000504585
     0.000553574
     0.000360035
     0.000499589
     0.000425290
     0.000530878
    -0.000382396
    -0.000483331
    -0.000299049
    -0.000570864
     0.000402238
     0.000779258
     0.000085118
     0.000795961
     0.000357160
     0.000572337
     0.000590178
     0.000829294
    -0.000122386
    -0.000134359
    -0.000032700
    -0.000111209
    -0.000000002
     0.000069155
    -0.000000326
     0.000125670
    -0.000265154
     0.000226251
     0.000383281
    -0.000010847
     0.000120835
    -0.000003069
    -0.000023375
     0.000493422
     0.000789022
     0.000409995
     0.000664424
     0.000501317
     0.000332561
     0.000473804
     0.000686873
    -0.000482594
    -0.000669749
    -0.000000022
    -0.000040709
     0.000000001
     0.000257643
     0.000004815
     0.000453116
     0.000342910
     0.000000931
     0.000112923
    -0.000186593
    -0.000418128
    -0.000017055
    -0.000517828
    -0.000035301
     0.000285573
     0.000376010
     0.000000001
     0.000151806
     0.000057399
    -0.000000000
     0.000177050
     0.000041650
     0.000092772
    -0.000004469
    -0.000000298
     0.000243189
     0.000000000
    -0.000000046
     0.000000119
     0.000186422
    -0.000016625
     0.000000002
    -0.000000138
    -0.000000003
     0.000416442
     0.000644644
     0.000000005
     0.000011911
     0.000363599
     0.000544497
     0.000212958
     0.000760229
    -0.000506925
    -0.000128520
    -0.000624844
    -0.000397259
     0.000371327
     0.000032460
     0.000072969
     0.000123322
     0.000326244
     0.000001045
     0.000435642
     0.000016325
    -0.000000071
    -0.000000010
    -0.000000001
    -0.000000004
     0.000237205
     0.000201372
    -0.000000062
    -0.000014583
    -0.000001910
    -0.000415380
     0.000395337
     0.000533687
     0.000005017
     0.000000000
     0.000560384
     0.000401643
     0.000119757
     0.000002585
    -0.000248834
    -0.000011334
    -0.000601018
    -0.000000012
    -0.000236887
    -0.000419805
    -0.000458859
    -0.000000002
    -0.000078930
     0.000315359
     0.000108882
     0.000255671
     0.000100144
     0.000118910
    -0.000387639
    -0.000000001
     0.000005718
     0.000382113
     0.000040370
     0.000112772
     0.000000001
    -0.000055058
    -0.000335412
    -0.000174872
    -0.000015403
    -0.000066844
    -0.000454527
     0.000596109
     0.000542317
     0.000669342
     0.000682192
     0.000491992
     0.000442815
     0.000581012
     0.000557589
    -0.000011643
    -0.000000001
    -0.000002092
     0.000794491
     0.000606252
     0.000712598
     0.000150889
     0.000649681
     0.000482978
     0.000919000
     0.000800522
    -0.000586249
    -0.000000064
    -0.000324919
    -0.000004080
    -0.000017197
    -0.000038886
    -0.000008681
     0.000015458
     0.000118260
    -0.000000010
     0.000368989
     0.000261198
     0.000054996
    -0.000267491
     0.000002324
    -0.000536460
    -0.000029428
     0.000705673
     0.000774526
     0.000787649
     0.000634101
     0.000606352
     0.000809492
     0.000490266
     0.000867535
    -0.000037467
    -0.000000640
    -0.000019372
    -0.000000016
    -0.000445754
     0.000018540
     0.000000000
     0.000235140
    -0.000000000
    -0.000000120
     0.000487826
     0.000000011
     0.000310819
     0.000055437
    -0.000084053
    -0.000401393
     0.000128817
    -0.000405153
    -0.000275645
    -0.000045501
     0.000570770
     0.000426291
     0.000002442
     0.000402212
     0.000184130
     0.000535550
     0.000000001
    -0.000028067
    -0.000077655
    -0.000655509
    -0.000531182
     0.000000001
     0.000563411
     0.000000089
     0.000407152
     0.000000000
     0.000000015
    -0.000032335
    -0.000004913
    -0.000077770
    -0.000000036
     0.000643474
     0.000540576
     0.000628171
     0.000003818
     0.000492682
     0.000424011
     0.001053725
     0.000325225
    -0.000446847
    -0.000166478
    -0.000292914
    -0.000001861
     0.000012777
     0.000741281
     0.000001048
     0.000031960
     0.000101222
     0.000574677
     0.000029261
     0.000443626
    -0.000592078
    -0.000000001
    -0.000738265
    -0.000000043
    -0.000002162
    -0.000597932
    -0.000724708
     0.000209924
     0.000191386
     0.000058781
    -0.000034315
    -0.000184788
     0.000076421
     0.000003484
     0.000445758
     0.000000002
     0.000456449
     0.000000000
     0.000403223
     0.000145489
     0.000521828
    -0.000012272
    -0.000001871
    -0.000012106
    -0.000539840
    -0.000001386
    -0.000441529
    -0.000478378
    -0.000026060
    -0.000674384
    -0.000134094
     0.000009066
     0.000143468
    -0.000253547
     0.000146616
     0.000310313
    -0.000000000
     0.000010354
    -0.000000495
     0.000324289
     0.000027953
     0.000212582
     0.000000000
     0.000383875
    -0.000010062
    -0.000259324
    -0.000000155
    -0.000513869
    -0.000225298
    -0.000376402
    -0.000193713
     0.000574212
     0.000454066
     0.000653466
     0.000529586
     0.000606110
     0.000432117
     0.000549097
     0.000431605
     0.000838582
     0.000499241
     0.000159516
     0.000653461
     0.000149206
     0.000479540
     0.000882915
     0.000519661
    -0.000000002
    -0.000017751
    -0.000004887
    -0.000627252
    -0.000027741
    -0.000586874
    -0.000071195
     0.000012232
     0.000103499
    -0.000245091
    -0.000000135
    -0.000048095
     0.000004981
    -0.000000048
    -0.000000000
    -0.000004022
     0.000881711
     0.000477549
     0.000840005
     0.000421129
    -0.000000064
    -0.000000003
     0.000719909
     0.000388115
     0.000626381
     0.000723958
    -0.000742049
    -0.000012465
    -0.000788102
     0.000277031
     0.000317228
     0.000033217
     0.000251157
    -0.000440561
    -0.000301879
     0.000039101
     0.000000054
     0.000001108
    -0.000003724
    -0.000000276
     0.000000001
     0.000564586
     0.000000015
     0.000223032
     0.000000003
     0.000145115
    -0.000415115
    -0.000348768
    -0.000190257
    -0.000471992
    -0.000086094
    -0.000627541
    -0.000034939
    -0.000608839
     0.000000032
     0.000301286
     0.000000002
     0.000372242
     0.000215285
     0.000144201
     0.000319862
    -0.000418558
    -0.000607108
    -0.000000000
     0.000294321
     0.000722451
     0.000000014
     0.000011860
     0.000002777
     0.000434771
     0.000287911
     0.000708370
     0.000571728
     0.000406234
     0.000344010
     0.000462355
     0.000041883
     0.000364489
     0.001037446
     0.000392452
    -0.000019219
    -0.000009756
    -0.000017251
    -0.000147183
    -0.000001424
    -0.000038027
    -0.000000040
    -0.000426104
    -0.000000011
    -0.000371665
    -0.000101212
    -0.000249145
     0.000210767
     0.000233968
    -0.000201760
    -0.000327874
     0.000502542
     0.000112908
     0.000003414
     0.000395798
     0.000608565
     0.000000001
     0.000098357
     0.000472272
    -0.000000031
    -0.000005882
    -0.000000436
    -0.000072571
    -0.000199488
    -0.000428213
    -0.000000270
    -0.000012639
    -0.000000004
    -0.000213993
     0.000086853
    -0.000000002
    -0.000000059
    -0.000374734
    -0.000000130
     0.000005108
     0.000003221
    -0.000000000
     0.000002274
    -0.000000155
     0.000000001
     0.000276139
    -0.000016640
    -0.000191638
    -0.000109152
    -0.000357922
     0.000617302
     0.000539698
     0.000570670
     0.000455530
     0.000671912
     0.000658893
     0.000581929
     0.000516196
    -0.000531343
    -0.000276771
    -0.000444805
    -0.000352666
    -0.000007263
    -0.000508919
    -0.000001617
    -0.000494829
     0.000917633
     0.000806919
     0.000599872
     0.000483439
     0.000942560
     0.000138713
     0.000849147
     0.000553040
    -0.000099460
    -0.000030142
    -0.000120897
    -0.000112928
    -0.000000001
    -0.000565805
    -0.000636521
    -0.000000002
     0.000231646
     0.000269446
    -0.000002919
     0.000296880
     0.000162064
     0.000095813
     0.000446779
     0.000337773
    -0.000020167
    -0.000002805
    -0.000403309
     0.000692007
     0.000564108
     0.000866812
     0.000706862
    -0.000328549
    -0.000182672
     0.000850243
     0.000566388
     0.000430708
     0.000616195
    -0.000608096
    -0.000414702
    -0.000000022
     0.000519896
     0.000000001
     0.000456794
     0.000088490
    -0.000066238
     0.000001464
     0.000427248
     0.000556436
    -0.000108822
     0.000195991
    -0.000032769
    -0.000451060
    -0.000014685
    -0.000293624
     0.000228249
     0.000000002
     0.000054297
     0.000274845
     0.000000001
     0.000386103
     0.000417801
    -0.000000863
    -0.000319173
    -0.000086099
    -0.000000292
    -0.000004810
     0.000000001
     0.000090343
     0.000335717
     0.000000073
     0.000000000
     0.000000000
     0.000421416
    -0.000000002
    -0.000000126
     0.000930015
     0.000292930
     0.000608061
     0.000472498
     0.000016525
     0.000000013
     0.000734689
     0.000545246
    -0.000355422
    -0.000559773
    -0.000083849
    -0.000409645
     0.000014924
     0.000714061
     0.000000830
     0.000493703
     0.000127217
     0.000247172
     0.000029178
     0.000591148
    -0.000000009
    -0.000000064
    -0.000044966
    -0.000325475
    -0.000001438
    -0.000253146
    -0.000014250
    -0.000035986
     0.000159770
     0.000194343
    -0.000269501
    -0.000001814
     0.000080581
    -0.000000055
     0.000000744
     0.000119460
     0.000262455
     0.000529479
     0.000000000
     0.000005960
     0.000354917
     0.000394583
    -0.000000012
    -0.000600386
    -0.000011309
    -0.000253219
    -0.000029553
    -0.000000002
    -0.000085907
     0.000265664
     0.000117153
     0.000000000
    -0.000420656
     0.000097098
    -0.000003161
     0.000246249
     0.000000001
     0.000057276
     0.000048273
     0.000252412
     0.000008205
    -0.000013132
    -0.000168348
    -0.000310862
    -0.000050699
     0.000033152
     0.000217170
     0.000427907
     0.000488078
     0.000331693
     0.000408168
     0.000534443
     0.000579208
     0.000421972
     0.000512392
    -0.000003701
    -0.000000002
    -0.000018478
     0.000575503
     0.000838715
     0.000335941
     0.000574708
     0.000103522
     0.000669356
     0.000437582
     0.000730531
    -0.000396241
    -0.000000081
    -0.000638422
    -0.000000502
    -0.000003151
    -0.000034000
    -0.000018958
     0.000001056
    -0.000355788
    -0.000018974
     0.000145969
     0.000287974
    -0.000613921
     0.000440226
     0.000725590
     0.000551960
     0.000678161
     0.000697945
     0.000379267
     0.000656128
     0.000487239
    -0.000001038
    -0.000049075
    -0.000000010
    -0.000020471
    -0.000061874
     0.000000001
    -0.000013108
     0.000040072
     0.000207412
     0.000000005
     0.000375292
    -0.000460134
    -0.000170610
    -0.000048955
    -0.000311896
    -0.000473400
     0.000084714
     0.000000000
     0.000485184
     0.000067875
     0.000340787
     0.000005496
     0.000289487
     0.000511447
    -0.000000001
     0.000000005
    -0.000000058
     0.000000000
     0.000250951
     0.000000210
     0.000217624
     0.000000002
    -0.000000024
    -0.000079138
    -0.000003727
    -0.000033065
     0.000242877
     0.000890490
     0.000300186
     0.000399927
     0.000002595
     0.000537139
     0.000400385
     0.000546855
    -0.000002451
    -0.000352348
    -0.000188335
    -0.000499295
     0.000224000
     0.000031413
     0.000346668
     0.000101096
     0.000012095
     0.000001276
     0.000434158
     0.000014463
    -0.000716554
    -0.000000001
    -0.000572276
    -0.001755663
    -0.000000165
    -0.003655727
    -0.003898639
    -0.003244537
    -0.003863457
    -0.000284892
    -0.001569220
    -0.000000012
    -0.000033761
    -0.000364970
    -0.000000041
    -0.000000044
    -0.000000016
    -0.000000659
    -0.003521486
    -0.003575923
    -0.003508490
    -0.003561865
    -0.004085042
    -0.004037137
    -0.004050291
    -0.004040861
    -0.004015572
    -0.004040512
    -0.004004082
    -0.003982096
    -0.000026526
    -0.003520065
    -0.000003606
    -0.002943660
    -0.002198919
    -0.003820937
    -0.001002824
    -0.003578796
    -0.000414125
    -0.003639414
    -0.000220821
    -0.003766059
    -0.003970676
    -0.004076736
    -0.003970800
    -0.004042241
    -0.000912371
    -0.003593984
    -0.004061430
    -0.004177666
    -0.003774480
    -0.003484962
    -0.004120102
    -0.004076968
    -0.000000080
    -0.000276878
    -0.000000001
    -0.000079914
    -0.000000003
    -0.000686124
    -0.001554198
    -0.000000004
    -0.001640328
    -0.000000104
    -0.000002870
    -0.000059950
    -0.000000006
    -0.000000000
    -0.001438846
    -0.001293052
    -0.001467223
    -0.001364296
     0.000005391
    -0.000051725
    -0.001818292
    -0.000000003
    -0.001862122
    -0.000000011
    -0.001055161
    -0.000000127
    -0.001304838
    -0.000035867
    -0.001405402
    -0.000190969
    -0.001575097
    -0.000485864
    -0.000853293
    -0.000000001
    -0.001244137
    -0.000000086
    -0.000000000
    -0.001668631
    -0.000242425
    -0.001737744
    -0.000415976
    -0.001408665
    -0.001578409
    -0.001851422
    -0.000266176
    -0.001700969
    -0.000023412
    -0.000158453
     0.000002296
     0.000004178
    -0.000097088
    -0.000371469
    -0.001509187
    -0.001614585
    -0.000043112
    -0.000703562
    -0.000054738
    -0.001399056
    -0.000323271
    -0.001520160
    -0.000000000
    -0.000000257
    -0.000001403
    -0.000056400
    -0.001326631
    -0.001433530
    -0.001362832
    -0.001476606
    -0.000793013
    -0.000000085
    -0.000969127
    -0.000000705
    -0.000330880
    -0.001651126
    -0.000528237
    -0.001706193
    -0.000220533
    -0.000000001
    -0.000849312
    -0.000000118
    -0.000859756
    -0.001335291
    -0.001302371
    -0.001491833
    -0.000001023
    -0.000373108
    -0.000066252
    -0.001073231
    -0.001303747
    -0.001570481
    -0.001467647
    -0.001674681
    -0.000000000
    -0.001348572
    -0.000000070
    -0.001464756
    -0.001508931
    -0.001759955
    -0.000000139
    -0.001556274
    -0.000000053
    -0.000015226
    -0.000030800
    -0.000180650
    -0.000167579
    -0.000866035
    -0.001482533
    -0.001590033
    -0.000738664
    -0.000000000
    -0.001376360
    -0.000613144
    -0.001464963
    -0.000817767
    -0.000000956
    -0.000000059
    -0.000010452
    -0.000001237
    -0.000117576
    -0.000155595
    -0.001484405
    -0.001430597
    -0.001501377
    -0.001442601
    -0.001616052
    -0.001284693
    -0.001643400
    -0.001333918
    -0.001430402
    -0.001343697
    -0.001496740
    -0.001425110
    -0.000073386
    -0.000000031
    -0.000189634
    -0.000000376
    -0.000398707
    -0.000059623
    -0.000750297
    -0.000157631
    -0.000999966
    -0.000020139
    -0.001180106
    -0.000039386
    -0.001596807
    -0.001546612
    -0.001643689
    -0.001543775
    -0.001461825
    -0.000148493
    -0.001737750
    -0.001621275
    -0.000462427
    -0.000786022
    -0.001590553
    -0.001630318
    -0.000000007
    -0.000000165
    -0.000000360
    -0.000001240
    -0.000649066
    -0.000639836
    -0.000000100
    -0.001560678
    -0.000000004
    -0.001484204
    -0.000000000
    -0.000000005
    -0.000053438
    -0.000002448
    -0.001267879
    -0.001375196
    -0.001197973
    -0.001345661
    -0.000724064
    -0.001309048
    -0.000639463
    -0.001303794
    -0.000000011
    -0.001796342
    -0.000000003
    -0.001759493
    -0.000085757
    -0.001336379
    -0.000017342
    -0.001081355
    -0.000446493
    -0.001445378
    -0.000175399
    -0.001274709
    -0.000000000
    -0.000000080
    -0.001135783
    -0.000000001
    -0.000785440
    -0.000394404
    -0.001634902
    -0.000228930
    -0.001565567
    -0.000022271
    -0.001574144
    -0.000005672
    -0.001534888
    -0.000255458
    -0.001754022
    -0.000002918
    -0.001695151
    -0.000152460
    -0.000022696
    -0.001229897
    -0.001019539
    -0.000335018
    -0.000086011
    -0.001492574
    -0.001383219
    -0.000727441
    -0.001386656
    -0.000299627
    -0.001285118
    -0.000048190
    -0.000063104
    -0.000001444
    -0.000000318
    -0.000000000
    -0.001510393
    -0.001418069
    -0.001469057
    -0.001384661
    -0.001421589
    -0.000477223
    -0.001357566
    -0.000296473
    -0.000000024
    -0.000250893
    -0.000000001
    -0.000093981
    -0.001535774
    -0.001376643
    -0.001394672
    -0.000903548
    -0.001060103
    -0.000063588
    -0.000387623
    -0.000000921
    -0.001667498
    -0.001534931
    -0.001568574
    -0.001364680
    -0.000770681
    -0.000000045
    -0.000524569
    -0.001718858
    -0.001570958
     0.000446521
    -0.000000090
    -0.000016070
    -0.000000069
     0.000000046
     0.000000002
    -0.000926041
    -0.000178441
    -0.001651599
    -0.001554385
