Energy			TotalSpectrum		IntensityFC		IntensityHT
1287.079113		1.514647e-02		6.609885e-03		8.536590e-03
1239.409516		1.572903e-02		6.864111e-03		8.864920e-03
1195.144890		1.631159e-02		7.118337e-03		9.193250e-03
1153.932997		1.689414e-02		7.372564e-03		9.521581e-03
1115.468564		1.747670e-02		7.626790e-03		9.849911e-03
1079.485707		1.805926e-02		7.881016e-03		1.017824e-02
1045.751779		1.864181e-02		8.135243e-03		1.050657e-02
1014.062331		1.922437e-02		8.389469e-03		1.083490e-02
984.236968		1.980693e-02		8.643695e-03		1.116323e-02
956.115912		2.038949e-02		8.897922e-03		1.149156e-02
929.557137		2.097204e-02		9.152148e-03		1.181989e-02
904.433971		2.155460e-02		9.406374e-03		1.214822e-02
880.633077		2.213716e-02		9.660601e-03		1.247655e-02
858.052742		2.271971e-02		9.914827e-03		1.280489e-02
836.601423		2.330227e-02		1.016905e-02		1.313322e-02
816.196510		2.388483e-02		1.042328e-02		1.346155e-02
796.763260		2.446738e-02		1.067751e-02		1.378988e-02
778.233882		2.504994e-02		1.093173e-02		1.411821e-02
760.546748		2.563250e-02		1.118596e-02		1.444654e-02
743.645709		2.621505e-02		1.144018e-02		1.477487e-02
727.479498		2.679761e-02		1.169441e-02		1.510320e-02
712.001211		2.738017e-02		1.194864e-02		1.543153e-02
697.167853		2.796272e-02		1.220286e-02		1.575986e-02
682.939937		2.854528e-02		1.245709e-02		1.608819e-02
669.281139		2.912784e-02		1.271132e-02		1.641652e-02
656.157979		2.971039e-02		1.296554e-02		1.674485e-02
643.539556		3.029295e-02		1.321977e-02		1.707318e-02
631.397300		3.087551e-02		1.347400e-02		1.740151e-02
619.704758		3.145807e-02		1.372822e-02		1.772984e-02
608.437399		3.204062e-02		1.398245e-02		1.805817e-02
597.572445		3.262318e-02		1.423667e-02		1.838650e-02
587.088718		3.320574e-02		1.449090e-02		1.871484e-02
576.966499		3.378829e-02		1.474513e-02		1.904317e-02
567.187406		3.437085e-02		1.499935e-02		1.937150e-02
557.734282		3.495341e-02		1.525358e-02		1.969983e-02
548.591097		3.553596e-02		1.550781e-02		2.002816e-02
539.742854		3.611852e-02		1.576203e-02		2.035649e-02
531.175507		3.670108e-02		1.601626e-02		2.068482e-02
522.875889		3.728364e-02		1.627048e-02		2.101315e-02
514.831645		3.786619e-02		1.652471e-02		2.134148e-02
507.031166		3.844875e-02		1.677894e-02		2.166981e-02
499.463536		3.903131e-02		1.703316e-02		2.199814e-02
492.118484		3.961386e-02		1.728739e-02		2.232647e-02
484.986332		4.019642e-02		1.754162e-02		2.265481e-02
478.057956		4.077898e-02		1.779584e-02		2.298314e-02
471.324745		4.136154e-02		1.805007e-02		2.331147e-02
464.778568		4.194409e-02		1.830430e-02		2.363980e-02
458.411739		4.252665e-02		1.855852e-02		2.396813e-02
452.216985		4.310921e-02		1.881275e-02		2.429646e-02
446.187426		4.369177e-02		1.906698e-02		2.462479e-02
440.316538		4.427433e-02		1.932120e-02		2.495312e-02
434.598142		4.485689e-02		1.957543e-02		2.528146e-02
429.026371		4.543944e-02		1.982966e-02		2.560979e-02
423.595657		4.602200e-02		2.008388e-02		2.593812e-02
418.300712		4.660456e-02		2.033811e-02		2.626645e-02
413.136505		4.718712e-02		2.059234e-02		2.659478e-02
408.098255		4.776968e-02		2.084657e-02		2.692312e-02
403.181409		4.835225e-02		2.110080e-02		2.725145e-02
398.381630		4.893482e-02		2.135503e-02		2.757979e-02
393.694787		4.951743e-02		2.160929e-02		2.790814e-02
389.116941		5.010020e-02		2.186365e-02		2.823655e-02
384.644332		5.068358e-02		2.211816e-02		2.856542e-02
380.273374		5.127057e-02		2.237316e-02		2.889741e-02
376.000640		5.186950e-02		2.263038e-02		2.923913e-02
371.822855		5.252970e-02		2.292013e-02		2.960956e-02
367.736889		5.365969e-02		2.355751e-02		3.010218e-02
363.739749		5.609424e-02		2.511561e-02		3.097863e-02
359.828569		6.067929e-02		2.691798e-02		3.376130e-02
356.000606		8.083146e-02		3.019252e-02		5.063894e-02
352.253231		1.580757e-01		4.298801e-02		1.150877e-01
348.583926		4.921721e-01		2.044927e-01		2.876794e-01
344.990278		3.130289e+00		2.149329e+00		9.809598e-01
341.469969		1.180444e+01		8.780917e+00		3.023525e+00
338.020777		1.648834e+01		1.036211e+01		6.126227e+00
334.640569		1.207611e+01		4.181869e+00		7.894243e+00
331.327296		1.015110e+01		1.702581e+00		8.448518e+00
328.078989		9.277291e+00		2.804132e+00		6.473158e+00
324.893757		1.309526e+01		7.713173e+00		5.382089e+00
321.769778		2.109212e+01		1.330064e+01		7.791478e+00
318.705304		1.888781e+01		8.698038e+00		1.018978e+01
315.698650		1.366145e+01		3.010384e+00		1.065107e+01
312.748196		1.162420e+01		2.305183e+00		9.319017e+00
309.852379		1.043016e+01		4.256749e+00		6.173412e+00
307.009697		1.361608e+01		7.770269e+00		5.845809e+00
304.218699		1.505721e+01		7.867837e+00		7.189374e+00
301.477990		1.104792e+01		3.463804e+00		7.584112e+00
298.786223		8.558119e+00		1.584789e+00		6.973330e+00
296.142097		7.012347e+00		1.929861e+00		5.082485e+00
293.544359		6.733790e+00		3.182520e+00		3.551270e+00
290.991799		7.790192e+00		4.089925e+00		3.700268e+00
288.483249		6.618546e+00		2.678330e+00		3.940216e+00
286.017581		4.717738e+00		1.057680e+00		3.660057e+00
283.593703		3.769448e+00		7.979784e-01		2.971470e+00
281.210562		3.072381e+00		1.111735e+00		1.960646e+00
278.867141		3.115472e+00		1.510042e+00		1.605429e+00
276.562454		3.027419e+00		1.378500e+00		1.648918e+00
274.295549		2.229015e+00		6.666069e-01		1.562408e+00
272.065503		1.668670e+00		3.418298e-01		1.326840e+00
269.871427		1.320583e+00		3.643374e-01		9.562456e-01
267.712455		1.135137e+00		4.768045e-01		6.583324e-01
265.587753		1.125166e+00		5.174849e-01		6.076813e-01
263.496511		9.324837e-01		3.490304e-01		5.834533e-01
261.437945		6.773478e-01		1.673115e-01		5.100363e-01
259.411294		5.338063e-01		1.312891e-01		4.025172e-01
257.415823		4.305809e-01		1.521511e-01		2.784298e-01
255.450816		3.955444e-01		1.725399e-01		2.230045e-01
253.515583		3.635826e-01		1.516275e-01		2.119552e-01
251.609451		2.856330e-01		9.296134e-02		1.926717e-01
249.731768		2.277560e-01		6.434840e-02		1.634076e-01
247.881903		1.917567e-01		6.401949e-02		1.277372e-01
246.059242		1.693720e-01		6.940104e-02		9.997097e-02
244.263189		1.613640e-01		6.909527e-02		9.226872e-02
242.493166		1.452394e-01		5.748247e-02		8.775696e-02
240.748611		1.262057e-01		4.558013e-02		8.062557e-02
239.028978		1.148985e-01		4.289845e-02		7.200003e-02
237.333737		1.070701e-01		4.380185e-02		6.326828e-02
235.662373		1.035546e-01		4.450503e-02		5.904955e-02
234.014384		1.011051e-01		4.314322e-02		5.796184e-02
232.389284		9.677569e-02		4.018344e-02		5.659226e-02
230.786599		9.358023e-02		3.875366e-02		5.482657e-02
229.205869		9.175801e-02		3.884906e-02		5.290895e-02
227.646646		9.073290e-02		3.921945e-02		5.151346e-02
226.108493		9.056017e-02		3.932222e-02		5.123795e-02
224.590986		9.019730e-02		3.899269e-02		5.120462e-02
223.093713		8.975067e-02		3.867398e-02		5.107669e-02
221.616271		8.967399e-02		3.876467e-02		5.090933e-02
220.158269		8.979000e-02		3.902074e-02		5.076926e-02
218.719326		9.011268e-02		3.926780e-02		5.084488e-02
217.299071		9.052475e-02		3.944083e-02		5.108392e-02
215.897141		9.088486e-02		3.956434e-02		5.132053e-02
214.513185		9.129163e-02		3.974578e-02		5.154585e-02
213.146859		9.175878e-02		3.998843e-02		5.177035e-02
211.797829		9.226127e-02		4.024196e-02		5.201932e-02
210.465767		9.280336e-02		4.048676e-02		5.231659e-02
209.150356		9.334637e-02		4.071892e-02		5.262745e-02
207.851285		9.388787e-02		4.095225e-02		5.293562e-02
206.568253		9.444261e-02		4.119957e-02		5.324304e-02
205.300963		9.500522e-02		4.145293e-02		5.355229e-02
204.049128		9.557589e-02		4.170610e-02		5.386980e-02
202.812466		9.615140e-02		4.195725e-02		5.419415e-02
201.590704		9.672604e-02		4.220722e-02		5.451882e-02
200.383574		9.730211e-02		4.245894e-02		5.484317e-02
199.190815		9.788022e-02		4.271262e-02		5.516760e-02
198.012171		9.845963e-02		4.296667e-02		5.549296e-02
196.847394		9.904055e-02		4.322051e-02		5.582004e-02
195.696239		9.962179e-02		4.347406e-02		5.614773e-02
194.558470		1.002030e-01		4.372766e-02		5.647534e-02
193.433855		1.007846e-01		4.398165e-02		5.680293e-02
192.322166		1.013664e-01		4.423582e-02		5.713061e-02
191.223182		1.019486e-01		4.449000e-02		5.745856e-02
190.136687		1.025309e-01		4.474413e-02		5.778675e-02
189.062469		1.031132e-01		4.499824e-02		5.811496e-02
188.000320		1.036956e-01		4.525240e-02		5.844316e-02
186.950039		1.042780e-01		4.550660e-02		5.877136e-02
185.911427		1.048604e-01		4.576082e-02		5.909959e-02
184.884292		1.054429e-01		4.601503e-02		5.942788e-02
183.868445		1.060254e-01		4.626924e-02		5.975619e-02
182.863699		1.066080e-01		4.652345e-02		6.008450e-02
181.869875		1.071905e-01		4.677767e-02		6.041281e-02
180.886794		1.077730e-01		4.703190e-02		6.074112e-02
179.914285		1.083556e-01		4.728612e-02		6.106944e-02
178.952176		1.089381e-01		4.754034e-02		6.139776e-02
178.000303		1.095207e-01		4.779457e-02		6.172609e-02
177.058502		1.101032e-01		4.804879e-02		6.205442e-02
176.126615		1.106858e-01		4.830302e-02		6.238274e-02
175.204487		1.112683e-01		4.855724e-02		6.271107e-02
174.291963		1.118509e-01		4.881147e-02		6.303940e-02
173.388896		1.124334e-01		4.906570e-02		6.336773e-02
172.495139		1.130160e-01		4.931992e-02		6.369606e-02
171.610548		1.135985e-01		4.957415e-02		6.402439e-02
170.734984		1.141811e-01		4.982837e-02		6.435272e-02
169.868309		1.147637e-01		5.008260e-02		6.468105e-02
169.010389		1.153462e-01		5.033683e-02		6.500938e-02
168.161090		1.159288e-01		5.059105e-02		6.533771e-02
167.320285		1.165113e-01		5.084528e-02		6.566604e-02
166.487845		1.170939e-01		5.109951e-02		6.599437e-02
165.663648		1.176764e-01		5.135373e-02		6.632270e-02
164.847571		1.182590e-01		5.160796e-02		6.665103e-02
164.039495		1.188415e-01		5.186219e-02		6.697936e-02
163.239302		1.194241e-01		5.211641e-02		6.730769e-02
162.446878		1.200067e-01		5.237064e-02		6.763602e-02
161.662111		1.205892e-01		5.262486e-02		6.796435e-02
160.884889		1.211718e-01		5.287909e-02		6.829268e-02
160.115105		1.217543e-01		5.313332e-02		6.862101e-02
159.352652		1.223369e-01		5.338754e-02		6.894934e-02
158.597426		1.229194e-01		5.364177e-02		6.927767e-02
157.849325		1.235020e-01		5.389600e-02		6.960600e-02
157.108248		1.240846e-01		5.415022e-02		6.993433e-02
156.374098		1.246671e-01		5.440445e-02		7.026267e-02
155.646776		1.252497e-01		5.465867e-02		7.059100e-02
154.926189		1.258322e-01		5.491290e-02		7.091933e-02
154.212244		1.264148e-01		5.516713e-02		7.124766e-02
153.504848		1.269973e-01		5.542135e-02		7.157599e-02
152.803913		1.275799e-01		5.567558e-02		7.190432e-02
152.109350		1.281625e-01		5.592981e-02		7.223265e-02
151.421072		1.287450e-01		5.618403e-02		7.256098e-02
150.738995		1.293276e-01		5.643826e-02		7.288931e-02
150.063036		1.299101e-01		5.669249e-02		7.321764e-02
149.393111		1.304927e-01		5.694671e-02		7.354597e-02
148.729142		1.310752e-01		5.720094e-02		7.387430e-02
148.071048		1.316578e-01		5.745516e-02		7.420263e-02
147.418753		1.322404e-01		5.770939e-02		7.453096e-02
146.772179		1.328229e-01		5.796362e-02		7.485929e-02
146.131253		1.334055e-01		5.821784e-02		7.518762e-02
145.495900		1.339880e-01		5.847207e-02		7.551595e-02
144.866047		1.345706e-01		5.872630e-02		7.584428e-02
144.241625		1.351531e-01		5.898052e-02		7.617261e-02
143.622562		1.357357e-01		5.923475e-02		7.650094e-02
143.008790		1.363182e-01		5.948898e-02		7.682927e-02
142.400242		1.369008e-01		5.974320e-02		7.715760e-02
141.796851		1.374834e-01		5.999743e-02		7.748593e-02
141.198552		1.380659e-01		6.025165e-02		7.781426e-02
140.605281		1.386485e-01		6.050588e-02		7.814259e-02
140.016975		1.392310e-01		6.076011e-02		7.847092e-02
139.433571		1.398136e-01		6.101433e-02		7.879925e-02
138.855008		1.403961e-01		6.126856e-02		7.912758e-02
138.281227		1.409787e-01		6.152279e-02		7.945591e-02
137.712168		1.415613e-01		6.177701e-02		7.978424e-02
137.147774		1.421438e-01		6.203124e-02		8.011257e-02
136.587987		1.427264e-01		6.228547e-02		8.044090e-02
136.032752		1.433089e-01		6.253969e-02		8.076924e-02
135.482012		1.438915e-01		6.279392e-02		8.109757e-02
134.935713		1.444740e-01		6.304814e-02		8.142590e-02
134.393803		1.450566e-01		6.330237e-02		8.175423e-02
133.856228		1.456392e-01		6.355660e-02		8.208256e-02
133.322936		1.462217e-01		6.381082e-02		8.241089e-02
132.793877		1.468043e-01		6.406505e-02		8.273922e-02
132.269000		1.473868e-01		6.431928e-02		8.306755e-02
131.748256		1.479694e-01		6.457350e-02		8.339588e-02
131.231596		1.485519e-01		6.482773e-02		8.372421e-02
130.718972		1.491345e-01		6.508196e-02		8.405254e-02
130.210338		1.497170e-01		6.533618e-02		8.438087e-02
129.705647		1.502996e-01		6.559041e-02		8.470920e-02
129.204853		1.508822e-01		6.584463e-02		8.503753e-02
128.707911		1.514647e-01		6.609886e-02		8.536586e-02
128.214777		1.520473e-01		6.635309e-02		8.569419e-02
127.725408		1.526298e-01		6.660731e-02		8.602252e-02
127.239760		1.532124e-01		6.686154e-02		8.635085e-02
126.757791		1.537949e-01		6.711577e-02		8.667918e-02
126.279460		1.543775e-01		6.736999e-02		8.700751e-02
125.804725		1.549601e-01		6.762422e-02		8.733584e-02
125.333547		1.555426e-01		6.787844e-02		8.766417e-02
124.865884		1.561252e-01		6.813267e-02		8.799250e-02
124.401699		1.567077e-01		6.838690e-02		8.832083e-02
123.940952		1.572903e-01		6.864112e-02		8.864916e-02
123.483605		1.578728e-01		6.889535e-02		8.897749e-02
123.029621		1.584554e-01		6.914958e-02		8.930582e-02
122.578963		1.590380e-01		6.940380e-02		8.963415e-02
122.131595		1.596205e-01		6.965803e-02		8.996248e-02
121.687480		1.602031e-01		6.991226e-02		9.029081e-02
121.246583		1.607856e-01		7.016648e-02		9.061914e-02
120.808870		1.613682e-01		7.042071e-02		9.094747e-02
120.374305		1.619507e-01		7.067493e-02		9.127580e-02
119.942856		1.625333e-01		7.092916e-02		9.160414e-02
119.514489		1.631159e-01		7.118339e-02		9.193247e-02
119.089171		1.636984e-01		7.143761e-02		9.226080e-02
118.666869		1.642810e-01		7.169184e-02		9.258913e-02
118.247551		1.648635e-01		7.194607e-02		9.291746e-02
117.831186		1.654461e-01		7.220029e-02		9.324579e-02
117.417744		1.660286e-01		7.245452e-02		9.357412e-02
117.007192		1.666112e-01		7.270875e-02		9.390245e-02
116.599501		1.671937e-01		7.296297e-02		9.423078e-02
116.194642		1.677763e-01		7.321720e-02		9.455911e-02
115.792585		1.683589e-01		7.347142e-02		9.488744e-02
115.393300		1.689414e-01		7.372565e-02		9.521577e-02
114.996759		1.695240e-01		7.397988e-02		9.554410e-02
114.602935		1.701065e-01		7.423410e-02		9.587243e-02
114.211798		1.706891e-01		7.448833e-02		9.620076e-02
113.823323		1.712716e-01		7.474256e-02		9.652909e-02
113.437481		1.718542e-01		7.499678e-02		9.685742e-02
113.054246		1.724368e-01		7.525101e-02		9.718575e-02
112.673592		1.730193e-01		7.550524e-02		9.751408e-02
112.295493		1.736019e-01		7.575946e-02		9.784241e-02
111.919923		1.741844e-01		7.601369e-02		9.817074e-02
111.546856		1.747670e-01		7.626791e-02		9.849907e-02
111.176269		1.753495e-01		7.652214e-02		9.882740e-02
110.808136		1.759321e-01		7.677637e-02		9.915573e-02
110.442432		1.765147e-01		7.703059e-02		9.948406e-02
110.079135		1.770972e-01		7.728482e-02		9.981239e-02
109.718219		1.776798e-01		7.753905e-02		1.001407e-01
109.359663		1.782623e-01		7.779327e-02		1.004691e-01
109.003443		1.788449e-01		7.804750e-02		1.007974e-01
108.649535		1.794274e-01		7.830173e-02		1.011257e-01
108.297919		1.800100e-01		7.855595e-02		1.014540e-01
107.948571		1.805926e-01		7.881018e-02		1.017824e-01
107.601469		1.811751e-01		7.906440e-02		1.021107e-01
107.256593		1.817577e-01		7.931863e-02		1.024390e-01
106.913920		1.823402e-01		7.957286e-02		1.027674e-01
106.573430		1.829228e-01		7.982708e-02		1.030957e-01
106.235101		1.835053e-01		8.008131e-02		1.034240e-01
105.898914		1.840879e-01		8.033554e-02		1.037524e-01
105.564848		1.846704e-01		8.058976e-02		1.040807e-01
105.232883		1.852530e-01		8.084399e-02		1.044090e-01
104.903000		1.858356e-01		8.109822e-02		1.047373e-01
104.575178		1.864181e-01		8.135244e-02		1.050657e-01
104.249399		1.870007e-01		8.160667e-02		1.053940e-01
103.925643		1.875832e-01		8.186089e-02		1.057223e-01
103.603891		1.881658e-01		8.211512e-02		1.060507e-01
103.284126		1.887483e-01		8.236935e-02		1.063790e-01
102.966329		1.893309e-01		8.262357e-02		1.067073e-01
102.650481		1.899135e-01		8.287780e-02		1.070357e-01
102.336566		1.904960e-01		8.313203e-02		1.073640e-01
102.024564		1.910786e-01		8.338625e-02		1.076923e-01
101.714459		1.916611e-01		8.364048e-02		1.080206e-01
101.406233		1.922437e-01		8.389471e-02		1.083490e-01
101.099870		1.928262e-01		8.414893e-02		1.086773e-01
100.795352		1.934088e-01		8.440316e-02		1.090056e-01
100.492663		1.939914e-01		8.465738e-02		1.093340e-01
100.191787		1.945739e-01		8.491161e-02		1.096623e-01
99.892707		1.951565e-01		8.516584e-02		1.099906e-01
99.595408		1.957390e-01		8.542006e-02		1.103190e-01
99.299872		1.963216e-01		8.567429e-02		1.106473e-01
99.006086		1.969041e-01		8.592852e-02		1.109756e-01
98.714032		1.974867e-01		8.618274e-02		1.113040e-01
98.423697		1.980693e-01		8.643697e-02		1.116323e-01
98.135064		1.986518e-01		8.669120e-02		1.119606e-01
97.848120		1.992344e-01		8.694542e-02		1.122889e-01
97.562848		1.998169e-01		8.719965e-02		1.126173e-01
97.279235		2.003995e-01		8.745387e-02		1.129456e-01
96.997266		2.009820e-01		8.770810e-02		1.132739e-01
96.716928		2.015646e-01		8.796233e-02		1.136023e-01
96.438204		2.021471e-01		8.821655e-02		1.139306e-01
96.161083		2.027297e-01		8.847078e-02		1.142589e-01
95.885550		2.033123e-01		8.872501e-02		1.145873e-01
95.611591		2.038948e-01		8.897923e-02		1.149156e-01
95.339194		2.044774e-01		8.923346e-02		1.152439e-01
95.068344		2.050599e-01		8.948769e-02		1.155722e-01
94.799028		2.056425e-01		8.974191e-02		1.159006e-01
94.531234		2.062250e-01		8.999614e-02		1.162289e-01
94.264949		2.068076e-01		9.025036e-02		1.165572e-01
94.000160		2.073902e-01		9.050459e-02		1.168856e-01
93.736854		2.079727e-01		9.075882e-02		1.172139e-01
93.475019		2.085553e-01		9.101304e-02		1.175422e-01
93.214643		2.091378e-01		9.126727e-02		1.178706e-01
92.955714		2.097204e-01		9.152150e-02		1.181989e-01
92.698219		2.103029e-01		9.177572e-02		1.185272e-01
92.442146		2.108855e-01		9.202995e-02		1.188555e-01
92.187485		2.114681e-01		9.228418e-02		1.191839e-01
91.934222		2.120506e-01		9.253840e-02		1.195122e-01
91.682348		2.126332e-01		9.279263e-02		1.198405e-01
91.431850		2.132157e-01		9.304685e-02		1.201689e-01
91.182716		2.137983e-01		9.330108e-02		1.204972e-01
90.934937		2.143808e-01		9.355531e-02		1.208255e-01
90.688501		2.149634e-01		9.380953e-02		1.211539e-01
90.443397		2.155460e-01		9.406376e-02		1.214822e-01
90.199614		2.161285e-01		9.431799e-02		1.218105e-01
89.957142		2.167111e-01		9.457221e-02		1.221389e-01
89.715970		2.172936e-01		9.482644e-02		1.224672e-01
89.476088		2.178762e-01		9.508067e-02		1.227955e-01
89.237485		2.184587e-01		9.533489e-02		1.231238e-01
89.000151		2.190413e-01		9.558912e-02		1.234522e-01
88.764077		2.196238e-01		9.584334e-02		1.237805e-01
88.529251		2.202064e-01		9.609757e-02		1.241088e-01
88.295665		2.207890e-01		9.635180e-02		1.244372e-01
88.063308		2.213715e-01		9.660602e-02		1.247655e-01
87.832170		2.219541e-01		9.686025e-02		1.250938e-01
87.602243		2.225366e-01		9.711448e-02		1.254222e-01
87.373517		2.231192e-01		9.736870e-02		1.257505e-01
87.145982		2.237017e-01		9.762293e-02		1.260788e-01
86.919628		2.242843e-01		9.787716e-02		1.264071e-01
86.694448		2.248669e-01		9.813138e-02		1.267355e-01
86.470431		2.254494e-01		9.838561e-02		1.270638e-01
86.247569		2.260320e-01		9.863983e-02		1.273921e-01
86.025853		2.266145e-01		9.889406e-02		1.277205e-01
85.805274		2.271971e-01		9.914829e-02		1.280488e-01
85.585823		2.277796e-01		9.940251e-02		1.283771e-01
85.367492		2.283622e-01		9.965674e-02		1.287055e-01
85.150272		2.289448e-01		9.991097e-02		1.290338e-01
84.934155		2.295273e-01		1.001652e-01		1.293621e-01
84.719131		2.301099e-01		1.004194e-01		1.296904e-01
84.505194		2.306924e-01		1.006736e-01		1.300188e-01
84.292335		2.312750e-01		1.009279e-01		1.303471e-01
84.080545		2.318575e-01		1.011821e-01		1.306754e-01
83.869817		2.324401e-01		1.014363e-01		1.310038e-01
83.660142		2.330227e-01		1.016906e-01		1.313321e-01
83.451514		2.336052e-01		1.019448e-01		1.316604e-01
83.243923		2.341878e-01		1.021990e-01		1.319888e-01
83.037362		2.347703e-01		1.024532e-01		1.323171e-01
82.831824		2.353529e-01		1.027075e-01		1.326454e-01
