Energy			TotalSpectrum		IntensityFC		IntensityHT
956.115912		1.644251e+00		1.301771e+00		3.424808e-01
929.557137		1.691230e+00		1.338964e+00		3.522659e-01
904.433971		1.738208e+00		1.376157e+00		3.620511e-01
880.633077		1.785187e+00		1.413351e+00		3.718362e-01
858.052742		1.832166e+00		1.450544e+00		3.816214e-01
836.601423		1.879144e+00		1.487738e+00		3.914066e-01
816.196510		1.926123e+00		1.524931e+00		4.011917e-01
796.763260		1.973102e+00		1.562125e+00		4.109769e-01
778.233882		2.020080e+00		1.599318e+00		4.207621e-01
760.546748		2.067059e+00		1.636512e+00		4.305472e-01
743.645709		2.114037e+00		1.673705e+00		4.403324e-01
727.479498		2.161016e+00		1.710898e+00		4.501176e-01
712.001211		2.207995e+00		1.748092e+00		4.599027e-01
697.167853		2.254973e+00		1.785285e+00		4.696879e-01
682.939937		2.301952e+00		1.822479e+00		4.794731e-01
669.281139		2.348931e+00		1.859672e+00		4.892582e-01
656.157979		2.395909e+00		1.896866e+00		4.990434e-01
643.539556		2.442888e+00		1.934059e+00		5.088285e-01
631.397300		2.489866e+00		1.971253e+00		5.186137e-01
619.704758		2.536845e+00		2.008446e+00		5.283989e-01
608.437399		2.583824e+00		2.045640e+00		5.381840e-01
597.572445		2.630802e+00		2.082833e+00		5.479692e-01
587.088718		2.677781e+00		2.120027e+00		5.577544e-01
576.966499		2.724760e+00		2.157220e+00		5.675395e-01
567.187406		2.771738e+00		2.194413e+00		5.773247e-01
557.734282		2.818717e+00		2.231607e+00		5.871099e-01
548.591097		2.865695e+00		2.268800e+00		5.968950e-01
539.742854		2.912674e+00		2.305994e+00		6.066802e-01
531.175507		2.959653e+00		2.343187e+00		6.164654e-01
522.875889		3.006631e+00		2.380381e+00		6.262505e-01
514.831645		3.053610e+00		2.417574e+00		6.360357e-01
507.031166		3.100589e+00		2.454768e+00		6.458209e-01
499.463536		3.147567e+00		2.491961e+00		6.556060e-01
492.118484		3.194546e+00		2.529155e+00		6.653912e-01
484.986332		3.241525e+00		2.566348e+00		6.751764e-01
478.057956		3.288503e+00		2.603542e+00		6.849615e-01
471.324745		3.335482e+00		2.640735e+00		6.947467e-01
464.778568		3.382461e+00		2.677929e+00		7.045318e-01
458.411739		3.429439e+00		2.715122e+00		7.143170e-01
452.216985		3.476418e+00		2.752316e+00		7.241022e-01
446.187426		3.523397e+00		2.789509e+00		7.338873e-01
440.316538		3.570375e+00		2.826703e+00		7.436725e-01
434.598142		3.617354e+00		2.863896e+00		7.534577e-01
429.026371		3.664333e+00		2.901090e+00		7.632428e-01
423.595657		3.711311e+00		2.938283e+00		7.730280e-01
418.300712		3.758290e+00		2.975477e+00		7.828132e-01
413.136505		3.805269e+00		3.012670e+00		7.925983e-01
408.098255		3.852247e+00		3.049864e+00		8.023835e-01
403.181409		3.899226e+00		3.087057e+00		8.121687e-01
398.381630		3.946205e+00		3.124251e+00		8.219538e-01
393.694787		3.993183e+00		3.161444e+00		8.317390e-01
389.116941		4.040162e+00		3.198638e+00		8.415242e-01
384.644332		4.087141e+00		3.235831e+00		8.513094e-01
380.273374		4.134120e+00		3.273025e+00		8.610945e-01
376.000640		4.181098e+00		3.310219e+00		8.708797e-01
371.822855		4.228077e+00		3.347412e+00		8.806649e-01
367.736889		4.275056e+00		3.384606e+00		8.904500e-01
363.739749		4.322035e+00		3.421799e+00		9.002352e-01
359.828569		4.369013e+00		3.458993e+00		9.100204e-01
356.000606		4.415992e+00		3.496187e+00		9.198055e-01
352.253231		4.462971e+00		3.533380e+00		9.295907e-01
348.583926		4.509950e+00		3.570574e+00		9.393759e-01
344.990278		4.556928e+00		3.607767e+00		9.491611e-01
341.469969		4.603907e+00		3.644961e+00		9.589462e-01
338.020777		4.650886e+00		3.682155e+00		9.687314e-01
334.640569		4.697865e+00		3.719348e+00		9.785166e-01
331.327296		4.744844e+00		3.756542e+00		9.883018e-01
328.078989		4.791823e+00		3.793736e+00		9.980869e-01
324.893757		4.838802e+00		3.830930e+00		1.007872e+00
321.769778		4.885781e+00		3.868123e+00		1.017657e+00
318.705304		4.932760e+00		3.905317e+00		1.027442e+00
315.698650		4.979739e+00		3.942511e+00		1.037228e+00
312.748196		5.026718e+00		3.979705e+00		1.047013e+00
309.852379		5.073697e+00		4.016899e+00		1.056798e+00
307.009697		5.120676e+00		4.054093e+00		1.066583e+00
304.218699		5.167655e+00		4.091287e+00		1.076368e+00
301.477990		5.214634e+00		4.128481e+00		1.086154e+00
298.786223		5.261614e+00		4.165675e+00		1.095939e+00
296.142097		5.308593e+00		4.202869e+00		1.105724e+00
293.544359		5.355572e+00		4.240063e+00		1.115509e+00
290.991799		5.402552e+00		4.277257e+00		1.125294e+00
288.483249		5.449532e+00		4.314452e+00		1.135080e+00
286.017581		5.496512e+00		4.351647e+00		1.144865e+00
283.593703		5.543492e+00		4.388842e+00		1.154650e+00
281.210562		5.590474e+00		4.426038e+00		1.164436e+00
278.867141		5.637464e+00		4.463239e+00		1.174225e+00
276.562454		5.684497e+00		4.500470e+00		1.184027e+00
274.295549		5.731759e+00		4.537854e+00		1.193905e+00
272.065503		5.780143e+00		4.576081e+00		1.204062e+00
269.871427		5.834020e+00		4.618846e+00		1.215174e+00
267.712455		5.914331e+00		4.681294e+00		1.233038e+00
265.587753		6.122494e+00		4.836106e+00		1.286387e+00
263.496511		7.000218e+00		5.579991e+00		1.420227e+00
261.437945		1.087228e+01		9.156361e+00		1.715923e+00
259.411294		2.280452e+01		1.939561e+01		3.408904e+00
257.415823		6.662024e+01		5.605262e+01		1.056762e+01
255.450816		3.669023e+02		3.375150e+02		2.938731e+01
253.515583		1.645345e+03		1.566668e+03		7.867688e+01
251.609451		3.227737e+03		3.067227e+03		1.605095e+02
249.731768		2.497495e+03		2.259195e+03		2.382999e+02
247.881903		1.632098e+03		1.325797e+03		3.063016e+02
246.059242		2.262156e+03		1.891857e+03		3.702988e+02
244.263189		2.797361e+03		2.233760e+03		5.636013e+02
242.493166		2.369536e+03		1.731959e+03		6.375770e+02
240.748611		1.739190e+03		1.293357e+03		4.458335e+02
239.028978		1.500630e+03		1.112006e+03		3.886240e+02
237.333737		1.407252e+03		9.535685e+02		4.536839e+02
235.662373		1.179073e+03		7.669771e+02		4.120963e+02
234.014384		9.092307e+02		5.957035e+02		3.135272e+02
232.389284		7.173814e+02		4.573476e+02		2.600338e+02
230.786599		5.637778e+02		3.448930e+02		2.188849e+02
229.205869		4.331765e+02		2.569032e+02		1.762733e+02
227.646646		3.366863e+02		1.955450e+02		1.411413e+02
226.108493		2.592025e+02		1.477131e+02		1.114894e+02
224.590986		1.922536e+02		1.074172e+02		8.483647e+01
223.093713		1.410877e+02		7.760666e+01		6.348105e+01
221.616271		1.054449e+02		5.726524e+01		4.817963e+01
220.158269		7.951252e+01		4.256591e+01		3.694660e+01
218.719326		5.937621e+01		3.176690e+01		2.760931e+01
217.299071		4.413600e+01		2.393521e+01		2.020079e+01
215.897141		3.331062e+01		1.835058e+01		1.496004e+01
214.513185		2.566635e+01		1.445642e+01		1.120994e+01
213.146859		2.021840e+01		1.178862e+01		8.429779e+00
211.797829		1.639332e+01		9.966142e+00		6.427176e+00
210.465767		1.369204e+01		8.706811e+00		4.985233e+00
209.150356		1.177824e+01		7.834551e+00		3.943687e+00
207.851285		1.046860e+01		7.251627e+00		3.216976e+00
206.568253		9.595591e+00		6.874989e+00		2.720602e+00
205.300963		9.011237e+00		6.632926e+00		2.378311e+00
204.049128		8.620674e+00		6.480766e+00		2.139909e+00
202.812466		8.366989e+00		6.390180e+00		1.976809e+00
201.590704		8.210641e+00		6.341550e+00		1.869091e+00
200.383574		8.121000e+00		6.321601e+00		1.799399e+00
199.190815		8.076295e+00		6.321200e+00		1.755094e+00
198.012171		8.061848e+00		6.333603e+00		1.728245e+00
196.847394		8.067567e+00		6.354330e+00		1.713237e+00
195.696239		8.086853e+00		6.380583e+00		1.706269e+00
194.558470		8.115499e+00		6.410608e+00		1.704891e+00
193.433855		8.150447e+00		6.443144e+00		1.707302e+00
192.322166		8.189487e+00		6.477303e+00		1.712184e+00
191.223182		8.231206e+00		6.512511e+00		1.718695e+00
190.136687		8.274719e+00		6.548410e+00		1.726309e+00
189.062469		8.319429e+00		6.584761e+00		1.734668e+00
188.000320		8.364929e+00		6.621409e+00		1.743520e+00
186.950039		8.410945e+00		6.658252e+00		1.752693e+00
185.911427		8.457298e+00		6.695220e+00		1.762078e+00
184.884292		8.503868e+00		6.732267e+00		1.771600e+00
183.868445		8.550581e+00		6.769367e+00		1.781214e+00
182.863699		8.597388e+00		6.806500e+00		1.790888e+00
181.869875		8.644256e+00		6.843655e+00		1.800602e+00
180.886794		8.691164e+00		6.880823e+00		1.810340e+00
179.914285		8.738096e+00		6.918001e+00		1.820095e+00
178.952176		8.785045e+00		6.955184e+00		1.829861e+00
178.000303		8.832005e+00		6.992371e+00		1.839634e+00
177.058502		8.878972e+00		7.029561e+00		1.849411e+00
176.126615		8.925942e+00		7.066752e+00		1.859191e+00
175.204487		8.972916e+00		7.103943e+00		1.868973e+00
174.291963		9.019891e+00		7.141136e+00		1.878756e+00
173.388896		9.066868e+00		7.178329e+00		1.888539e+00
172.495139		9.113845e+00		7.215522e+00		1.898324e+00
171.610548		9.160823e+00		7.252715e+00		1.908108e+00
170.734984		9.207801e+00		7.289908e+00		1.917893e+00
169.868309		9.254780e+00		7.327101e+00		1.927678e+00
169.010389		9.301758e+00		7.364295e+00		1.937463e+00
168.161090		9.348736e+00		7.401488e+00		1.947248e+00
167.320285		9.395715e+00		7.438682e+00		1.957033e+00
166.487845		9.442693e+00		7.475875e+00		1.966818e+00
165.663648		9.489672e+00		7.513069e+00		1.976604e+00
164.847571		9.536651e+00		7.550262e+00		1.986389e+00
164.039495		9.583629e+00		7.587455e+00		1.996174e+00
163.239302		9.630608e+00		7.624649e+00		2.005959e+00
162.446878		9.677586e+00		7.661842e+00		2.015744e+00
161.662111		9.724565e+00		7.699036e+00		2.025529e+00
160.884889		9.771544e+00		7.736229e+00		2.035314e+00
160.115105		9.818522e+00		7.773423e+00		2.045100e+00
159.352652		9.865501e+00		7.810616e+00		2.054885e+00
158.597426		9.912479e+00		7.847810e+00		2.064670e+00
157.849325		9.959458e+00		7.885003e+00		2.074455e+00
157.108248		1.000644e+01		7.922196e+00		2.084240e+00
156.374098		1.005342e+01		7.959390e+00		2.094025e+00
155.646776		1.010039e+01		7.996583e+00		2.103811e+00
154.926189		1.014737e+01		8.033777e+00		2.113596e+00
154.212244		1.019435e+01		8.070970e+00		2.123381e+00
153.504848		1.024133e+01		8.108164e+00		2.133166e+00
152.803913		1.028831e+01		8.145357e+00		2.142951e+00
152.109350		1.033529e+01		8.182551e+00		2.152736e+00
151.421072		1.038227e+01		8.219744e+00		2.162522e+00
150.738995		1.042924e+01		8.256937e+00		2.172307e+00
150.063036		1.047622e+01		8.294131e+00		2.182092e+00
149.393111		1.052320e+01		8.331324e+00		2.191877e+00
148.729142		1.057018e+01		8.368518e+00		2.201662e+00
148.071048		1.061716e+01		8.405711e+00		2.211447e+00
147.418753		1.066414e+01		8.442905e+00		2.221232e+00
146.772179		1.071112e+01		8.480098e+00		2.231018e+00
146.131253		1.075809e+01		8.517291e+00		2.240803e+00
145.495900		1.080507e+01		8.554485e+00		2.250588e+00
144.866047		1.085205e+01		8.591678e+00		2.260373e+00
144.241625		1.089903e+01		8.628872e+00		2.270158e+00
143.622562		1.094601e+01		8.666065e+00		2.279943e+00
143.008790		1.099299e+01		8.703259e+00		2.289729e+00
142.400242		1.103997e+01		8.740452e+00		2.299514e+00
141.796851		1.108694e+01		8.777646e+00		2.309299e+00
141.198552		1.113392e+01		8.814839e+00		2.319084e+00
140.605281		1.118090e+01		8.852032e+00		2.328869e+00
140.016975		1.122788e+01		8.889226e+00		2.338654e+00
139.433571		1.127486e+01		8.926419e+00		2.348440e+00
138.855008		1.132184e+01		8.963613e+00		2.358225e+00
138.281227		1.136882e+01		9.000806e+00		2.368010e+00
137.712168		1.141579e+01		9.038000e+00		2.377795e+00
137.147774		1.146277e+01		9.075193e+00		2.387580e+00
136.587987		1.150975e+01		9.112387e+00		2.397365e+00
136.032752		1.155673e+01		9.149580e+00		2.407151e+00
135.482012		1.160371e+01		9.186773e+00		2.416936e+00
134.935713		1.165069e+01		9.223967e+00		2.426721e+00
134.393803		1.169767e+01		9.261160e+00		2.436506e+00
133.856228		1.174464e+01		9.298354e+00		2.446291e+00
133.322936		1.179162e+01		9.335547e+00		2.456076e+00
132.793877		1.183860e+01		9.372741e+00		2.465862e+00
132.269000		1.188558e+01		9.409934e+00		2.475647e+00
131.748256		1.193256e+01		9.447127e+00		2.485432e+00
131.231596		1.197954e+01		9.484321e+00		2.495217e+00
130.718972		1.202652e+01		9.521514e+00		2.505002e+00
130.210338		1.207350e+01		9.558708e+00		2.514787e+00
129.705647		1.212047e+01		9.595901e+00		2.524573e+00
129.204853		1.216745e+01		9.633095e+00		2.534358e+00
128.707911		1.221443e+01		9.670288e+00		2.544143e+00
128.214777		1.226141e+01		9.707481e+00		2.553928e+00
127.725408		1.230839e+01		9.744675e+00		2.563713e+00
127.239760		1.235537e+01		9.781868e+00		2.573498e+00
126.757791		1.240235e+01		9.819062e+00		2.583284e+00
126.279460		1.244932e+01		9.856255e+00		2.593069e+00
125.804725		1.249630e+01		9.893449e+00		2.602854e+00
125.333547		1.254328e+01		9.930642e+00		2.612639e+00
124.865884		1.259026e+01		9.967836e+00		2.622424e+00
124.401699		1.263724e+01		1.000503e+01		2.632209e+00
123.940952		1.268422e+01		1.004222e+01		2.641994e+00
123.483605		1.273120e+01		1.007942e+01		2.651780e+00
123.029621		1.277817e+01		1.011661e+01		2.661565e+00
122.578963		1.282515e+01		1.015380e+01		2.671350e+00
122.131595		1.287213e+01		1.019100e+01		2.681135e+00
121.687480		1.291911e+01		1.022819e+01		2.690920e+00
121.246583		1.296609e+01		1.026538e+01		2.700705e+00
120.808870		1.301307e+01		1.030258e+01		2.710491e+00
120.374305		1.306005e+01		1.033977e+01		2.720276e+00
119.942856		1.310702e+01		1.037696e+01		2.730061e+00
119.514489		1.315400e+01		1.041416e+01		2.739846e+00
119.089171		1.320098e+01		1.045135e+01		2.749631e+00
118.666869		1.324796e+01		1.048854e+01		2.759416e+00
118.247551		1.329494e+01		1.052574e+01		2.769202e+00
117.831186		1.334192e+01		1.056293e+01		2.778987e+00
117.417744		1.338890e+01		1.060012e+01		2.788772e+00
117.007192		1.343587e+01		1.063732e+01		2.798557e+00
116.599501		1.348285e+01		1.067451e+01		2.808342e+00
116.194642		1.352983e+01		1.071170e+01		2.818127e+00
115.792585		1.357681e+01		1.074890e+01		2.827913e+00
115.393300		1.362379e+01		1.078609e+01		2.837698e+00
114.996759		1.367077e+01		1.082328e+01		2.847483e+00
114.602935		1.371775e+01		1.086048e+01		2.857268e+00
114.211798		1.376472e+01		1.089767e+01		2.867053e+00
113.823323		1.381170e+01		1.093486e+01		2.876838e+00
113.437481		1.385868e+01		1.097206e+01		2.886624e+00
113.054246		1.390566e+01		1.100925e+01		2.896409e+00
112.673592		1.395264e+01		1.104645e+01		2.906194e+00
112.295493		1.399962e+01		1.108364e+01		2.915979e+00
111.919923		1.404660e+01		1.112083e+01		2.925764e+00
111.546856		1.409357e+01		1.115803e+01		2.935549e+00
111.176269		1.414055e+01		1.119522e+01		2.945335e+00
110.808136		1.418753e+01		1.123241e+01		2.955120e+00
110.442432		1.423451e+01		1.126961e+01		2.964905e+00
110.079135		1.428149e+01		1.130680e+01		2.974690e+00
109.718219		1.432847e+01		1.134399e+01		2.984475e+00
109.359663		1.437545e+01		1.138119e+01		2.994260e+00
109.003443		1.442242e+01		1.141838e+01		3.004046e+00
108.649535		1.446940e+01		1.145557e+01		3.013831e+00
108.297919		1.451638e+01		1.149277e+01		3.023616e+00
107.948571		1.456336e+01		1.152996e+01		3.033401e+00
107.601469		1.461034e+01		1.156715e+01		3.043186e+00
107.256593		1.465732e+01		1.160435e+01		3.052971e+00
106.913920		1.470430e+01		1.164154e+01		3.062757e+00
106.573430		1.475128e+01		1.167873e+01		3.072542e+00
106.235101		1.479825e+01		1.171593e+01		3.082327e+00
105.898914		1.484523e+01		1.175312e+01		3.092112e+00
105.564848		1.489221e+01		1.179031e+01		3.101897e+00
105.232883		1.493919e+01		1.182751e+01		3.111682e+00
104.903000		1.498617e+01		1.186470e+01		3.121468e+00
104.575178		1.503315e+01		1.190189e+01		3.131253e+00
104.249399		1.508013e+01		1.193909e+01		3.141038e+00
103.925643		1.512710e+01		1.197628e+01		3.150823e+00
103.603891		1.517408e+01		1.201347e+01		3.160608e+00
103.284126		1.522106e+01		1.205067e+01		3.170393e+00
102.966329		1.526804e+01		1.208786e+01		3.180178e+00
102.650481		1.531502e+01		1.212505e+01		3.189964e+00
102.336566		1.536200e+01		1.216225e+01		3.199749e+00
102.024564		1.540898e+01		1.219944e+01		3.209534e+00
101.714459		1.545595e+01		1.223663e+01		3.219319e+00
101.406233		1.550293e+01		1.227383e+01		3.229104e+00
101.099870		1.554991e+01		1.231102e+01		3.238889e+00
100.795352		1.559689e+01		1.234822e+01		3.248675e+00
100.492663		1.564387e+01		1.238541e+01		3.258460e+00
100.191787		1.569085e+01		1.242260e+01		3.268245e+00
99.892707		1.573783e+01		1.245980e+01		3.278030e+00
99.595408		1.578480e+01		1.249699e+01		3.287815e+00
99.299872		1.583178e+01		1.253418e+01		3.297600e+00
99.006086		1.587876e+01		1.257138e+01		3.307386e+00
98.714032		1.592574e+01		1.260857e+01		3.317171e+00
98.423697		1.597272e+01		1.264576e+01		3.326956e+00
98.135064		1.601970e+01		1.268296e+01		3.336741e+00
97.848120		1.606668e+01		1.272015e+01		3.346526e+00
97.562848		1.611365e+01		1.275734e+01		3.356311e+00
97.279235		1.616063e+01		1.279454e+01		3.366097e+00
96.997266		1.620761e+01		1.283173e+01		3.375882e+00
96.716928		1.625459e+01		1.286892e+01		3.385667e+00
96.438204		1.630157e+01		1.290612e+01		3.395452e+00
96.161083		1.634855e+01		1.294331e+01		3.405237e+00
95.885550		1.639553e+01		1.298050e+01		3.415022e+00
95.611591		1.644250e+01		1.301770e+01		3.424808e+00
95.339194		1.648948e+01		1.305489e+01		3.434593e+00
95.068344		1.653646e+01		1.309208e+01		3.444378e+00
94.799028		1.658344e+01		1.312928e+01		3.454163e+00
94.531234		1.663042e+01		1.316647e+01		3.463948e+00
94.264949		1.667740e+01		1.320366e+01		3.473733e+00
94.000160		1.672438e+01		1.324086e+01		3.483519e+00
93.736854		1.677135e+01		1.327805e+01		3.493304e+00
93.475019		1.681833e+01		1.331524e+01		3.503089e+00
93.214643		1.686531e+01		1.335244e+01		3.512874e+00
92.955714		1.691229e+01		1.338963e+01		3.522659e+00
92.698219		1.695927e+01		1.342682e+01		3.532444e+00
92.442146		1.700625e+01		1.346402e+01		3.542230e+00
92.187485		1.705323e+01		1.350121e+01		3.552015e+00
91.934222		1.710020e+01		1.353840e+01		3.561800e+00
91.682348		1.714718e+01		1.357560e+01		3.571585e+00
91.431850		1.719416e+01		1.361279e+01		3.581370e+00
91.182716		1.724114e+01		1.364999e+01		3.591155e+00
90.934937		1.728812e+01		1.368718e+01		3.600941e+00
90.688501		1.733510e+01		1.372437e+01		3.610726e+00
90.443397		1.738208e+01		1.376157e+01		3.620511e+00
90.199614		1.742905e+01		1.379876e+01		3.630296e+00
89.957142		1.747603e+01		1.383595e+01		3.640081e+00
89.715970		1.752301e+01		1.387315e+01		3.649866e+00
89.476088		1.756999e+01		1.391034e+01		3.659652e+00
89.237485		1.761697e+01		1.394753e+01		3.669437e+00
89.000151		1.766395e+01		1.398473e+01		3.679222e+00
88.764077		1.771093e+01		1.402192e+01		3.689007e+00
88.529251		1.775791e+01		1.405911e+01		3.698792e+00
88.295665		1.780488e+01		1.409631e+01		3.708577e+00
88.063308		1.785186e+01		1.413350e+01		3.718363e+00
87.832170		1.789884e+01		1.417069e+01		3.728148e+00
87.602243		1.794582e+01		1.420789e+01		3.737933e+00
87.373517		1.799280e+01		1.424508e+01		3.747718e+00
87.145982		1.803978e+01		1.428227e+01		3.757503e+00
86.919628		1.808676e+01		1.431947e+01		3.767288e+00
86.694448		1.813373e+01		1.435666e+01		3.777073e+00
86.470431		1.818071e+01		1.439385e+01		3.786859e+00
86.247569		1.822769e+01		1.443105e+01		3.796644e+00
86.025853		1.827467e+01		1.446824e+01		3.806429e+00
85.805274		1.832165e+01		1.450543e+01		3.816214e+00
85.585823		1.836863e+01		1.454263e+01		3.825999e+00
85.367492		1.841561e+01		1.457982e+01		3.835784e+00
85.150272		1.846258e+01		1.461701e+01		3.845570e+00
84.934155		1.850956e+01		1.465421e+01		3.855355e+00
84.719131		1.855654e+01		1.469140e+01		3.865140e+00
84.505194		1.860352e+01		1.472859e+01		3.874925e+00
84.292335		1.865050e+01		1.476579e+01		3.884710e+00
84.080545		1.869748e+01		1.480298e+01		3.894495e+00
83.869817		1.874446e+01		1.484017e+01		3.904281e+00
83.660142		1.879143e+01		1.487737e+01		3.914066e+00
83.451514		1.883841e+01		1.491456e+01		3.923851e+00
83.243923		1.888539e+01		1.495176e+01		3.933636e+00
83.037362		1.893237e+01		1.498895e+01		3.943421e+00
82.831824		1.897935e+01		1.502614e+01		3.953206e+00
82.627301		1.902633e+01		1.506334e+01		3.962992e+00
82.423786		1.907331e+01		1.510053e+01		3.972777e+00
82.221270		1.912028e+01		1.513772e+01		3.982562e+00
82.019747		1.916726e+01		1.517492e+01		3.992347e+00
81.819210		1.921424e+01		1.521211e+01		4.002132e+00
81.619651		1.926122e+01		1.524930e+01		4.011917e+00
81.421063		1.930820e+01		1.528650e+01		4.021703e+00
81.223439		1.935518e+01		1.532369e+01		4.031488e+00
81.026772		1.940216e+01		1.536088e+01		4.041273e+00
80.831055		1.944913e+01		1.539808e+01		4.051058e+00
80.636282		1.949611e+01		1.543527e+01		4.060843e+00
80.442445		1.954309e+01		1.547246e+01		4.070628e+00
80.249537		1.959007e+01		1.550966e+01		4.080414e+00
80.057552		1.963705e+01		1.554685e+01		4.090199e+00
79.866484		1.968403e+01		1.558404e+01		4.099984e+00
79.676326		1.973101e+01		1.562124e+01		4.109769e+00
79.487071		1.977798e+01		1.565843e+01		4.119554e+00
79.298713		1.982496e+01		1.569562e+01		4.129339e+00
79.111246		1.987194e+01		1.573282e+01		4.139125e+00
78.924663		1.991892e+01		1.577001e+01		4.148910e+00
78.738957		1.996590e+01		1.580720e+01		4.158695e+00
78.554124		2.001288e+01		1.584440e+01		4.168480e+00
78.370157		2.005986e+01		1.588159e+01		4.178265e+00
78.187049		2.010683e+01		1.591878e+01		4.188050e+00
78.004795		2.015381e+01		1.595598e+01		4.197836e+00
77.823388		2.020079e+01		1.599317e+01		4.207621e+00
77.642823		2.024777e+01		1.603036e+01		4.217406e+00
77.463095		2.029475e+01		1.606756e+01		4.227191e+00
77.284196		2.034173e+01		1.610475e+01		4.236976e+00
77.106122		2.038871e+01		1.614194e+01		4.246761e+00
76.928866		2.043568e+01		1.617914e+01		4.256547e+00
76.752424		2.048266e+01		1.621633e+01		4.266332e+00
76.576789		2.052964e+01		1.625353e+01		4.276117e+00
76.401956		2.057662e+01		1.629072e+01		4.285902e+00
76.227920		2.062360e+01		1.632791e+01		4.295687e+00
76.054675		2.067058e+01		1.636511e+01		4.305472e+00
75.882215		2.071756e+01		1.640230e+01		4.315258e+00
75.710536		2.076454e+01		1.643949e+01		4.325043e+00
75.539632		2.081151e+01		1.647669e+01		4.334828e+00
75.369498		2.085849e+01		1.651388e+01		4.344613e+00
75.200128		2.090547e+01		1.655107e+01		4.354398e+00
75.031518		2.095245e+01		1.658827e+01		4.364183e+00
74.863662		2.099943e+01		1.662546e+01		4.373969e+00
74.696556		2.104641e+01		1.666265e+01		4.383754e+00
74.530194		2.109339e+01		1.669985e+01		4.393539e+00
74.364571		2.114036e+01		1.673704e+01		4.403324e+00
74.199683		2.118734e+01		1.677423e+01		4.413109e+00
74.035524		2.123432e+01		1.681143e+01		4.422894e+00
73.872090		2.128130e+01		1.684862e+01		4.432679e+00
73.709376		2.132828e+01		1.688581e+01		4.442465e+00
73.547378		2.137526e+01		1.692301e+01		4.452250e+00
73.386090		2.142224e+01		1.696020e+01		4.462035e+00
73.225507		2.146921e+01		1.699739e+01		4.471820e+00
73.065626		2.151619e+01		1.703459e+01		4.481605e+00
72.906442		2.156317e+01		1.707178e+01		4.491390e+00
72.747950		2.161015e+01		1.710897e+01		4.501176e+00
72.590145		2.165713e+01		1.714617e+01		4.510961e+00
72.433024		2.170411e+01		1.718336e+01		4.520746e+00
72.276581		2.175109e+01		1.722055e+01		4.530531e+00
72.120812		2.179806e+01		1.725775e+01		4.540316e+00
71.965714		2.184504e+01		1.729494e+01		4.550101e+00
71.811281		2.189202e+01		1.733213e+01		4.559887e+00
71.657509		2.193900e+01		1.736933e+01		4.569672e+00
71.504395		2.198598e+01		1.740652e+01		4.579457e+00
71.351934		2.203296e+01		1.744371e+01		4.589242e+00
71.200121		2.207994e+01		1.748091e+01		4.599027e+00
71.048953		2.212691e+01		1.751810e+01		4.608812e+00
70.898426		2.217389e+01		1.755530e+01		4.618598e+00
70.748535		2.222087e+01		1.759249e+01		4.628383e+00
70.599276		2.226785e+01		1.762968e+01		4.638168e+00
70.450646		2.231483e+01		1.766688e+01		4.647953e+00
70.302641		2.236181e+01		1.770407e+01		4.657738e+00
70.155256		2.240879e+01		1.774126e+01		4.667523e+00
70.008487		2.245576e+01		1.777846e+01		4.677309e+00
69.862332		2.250274e+01		1.781565e+01		4.687094e+00
69.716785		2.254972e+01		1.785284e+01		4.696879e+00
69.571844		2.259670e+01		1.789004e+01		4.706664e+00
69.427504		2.264368e+01		1.792723e+01		4.716449e+00
69.283762		2.269066e+01		1.796442e+01		4.726234e+00
69.140613		2.273764e+01		1.800162e+01		4.736020e+00
68.998056		2.278461e+01		1.803881e+01		4.745805e+00
68.856084		2.283159e+01		1.807600e+01		4.755590e+00
68.714696		2.287857e+01		1.811320e+01		4.765375e+00
68.573887		2.292555e+01		1.815039e+01		4.775160e+00
68.433654		2.297253e+01		1.818758e+01		4.784945e+00
68.293994		2.301951e+01		1.822478e+01		4.794731e+00
68.154902		2.306649e+01		1.826197e+01		4.804516e+00
68.016376		2.311346e+01		1.829916e+01		4.814301e+00
67.878412		2.316044e+01		1.833636e+01		4.824086e+00
67.741006		2.320742e+01		1.837355e+01		4.833871e+00
67.604155		2.325440e+01		1.841074e+01		4.843656e+00
67.467857		2.330138e+01		1.844794e+01		4.853442e+00
67.332106		2.334836e+01		1.848513e+01		4.863227e+00
67.196901		2.339534e+01		1.852232e+01		4.873012e+00
67.062238		2.344231e+01		1.855952e+01		4.882797e+00
66.928114		2.348929e+01		1.859671e+01		4.892582e+00
66.794525		2.353627e+01		1.863390e+01		4.902367e+00
66.661468		2.358325e+01		1.867110e+01		4.912153e+00
66.528940		2.363023e+01		1.870829e+01		4.921938e+00
66.396938		2.367721e+01		1.874548e+01		4.931723e+00
66.265459		2.372419e+01		1.878268e+01		4.941508e+00
66.134500		2.377116e+01		1.881987e+01		4.951293e+00
66.004057		2.381814e+01		1.885707e+01		4.961078e+00
65.874128		2.386512e+01		1.889426e+01		4.970864e+00
65.744709		2.391210e+01		1.893145e+01		4.980649e+00
65.615798		2.395908e+01		1.896865e+01		4.990434e+00
65.487391		2.400606e+01		1.900584e+01		5.000219e+00
65.359486		2.405304e+01		1.904303e+01		5.010004e+00
65.232080		2.410002e+01		1.908023e+01		5.019789e+00
65.105169		2.414699e+01		1.911742e+01		5.029575e+00
64.978751		2.419397e+01		1.915461e+01		5.039360e+00
64.852823		2.424095e+01		1.919181e+01		5.049145e+00
64.727383		2.428793e+01		1.922900e+01		5.058930e+00
64.602426		2.433491e+01		1.926619e+01		5.068715e+00
64.477952		2.438189e+01		1.930339e+01		5.078500e+00
64.353956		2.442887e+01		1.934058e+01		5.088285e+00
64.230436		2.447584e+01		1.937777e+01		5.098071e+00
64.107389		2.452282e+01		1.941497e+01		5.107856e+00
63.984812		2.456980e+01		1.945216e+01		5.117641e+00
63.862704		2.461678e+01		1.948935e+01		5.127426e+00
63.741061		2.466376e+01		1.952655e+01		5.137211e+00
63.619880		2.471074e+01		1.956374e+01		5.146996e+00
63.499159		2.475772e+01		1.960093e+01		5.156782e+00
63.378896		2.480469e+01		1.963813e+01		5.166567e+00
63.259087		2.485167e+01		1.967532e+01		5.176352e+00
63.139730		2.489865e+01		1.971251e+01		5.186137e+00
63.020823		2.494563e+01		1.974971e+01		5.195922e+00
62.902363		2.499261e+01		1.978690e+01		5.205707e+00
62.784347		2.503959e+01		1.982409e+01		5.215493e+00
62.666773		2.508657e+01		1.986129e+01		5.225278e+00
62.549639		2.513354e+01		1.989848e+01		5.235063e+00
62.432942		2.518052e+01		1.993567e+01		5.244848e+00
62.316680		2.522750e+01		1.997287e+01		5.254633e+00
62.200849		2.527448e+01		2.001006e+01		5.264418e+00
62.085449		2.532146e+01		2.004725e+01		5.274204e+00
61.970476		2.536844e+01		2.008445e+01		5.283989e+00
61.855928		2.541542e+01		2.012164e+01		5.293774e+00
61.741802		2.546239e+01		2.015884e+01		5.303559e+00
61.628097		2.550937e+01		2.019603e+01		5.313344e+00
61.514811		2.555635e+01		2.023322e+01		5.323129e+00
61.401939		2.560333e+01		2.027042e+01		5.332915e+00
61.289482		2.565031e+01		2.030761e+01		5.342700e+00
61.177435		2.569729e+01		2.034480e+01		5.352485e+00
