Corrected dielectric energy   =     -0.011831535
Total C-PCM charge            =      0.000000000
C-PCM corrected charges:
     0.001074980
     0.000955767
     0.000328630
     0.000551520
     0.002447848
     0.002305606
     0.002237440
     0.002769253
    -0.000003370
     0.002554255
    -0.000009901
     0.000013389
     0.002194500
     0.001982216
     0.000009327
     0.002408404
     0.002614941
     0.000535033
     0.002387343
    -0.000009108
     0.000007293
     0.002518418
     0.002820398
     0.000120988
     0.002194792
    -0.000000482
     0.001936275
     0.002582018
     0.001674226
     0.002634690
     0.002182745
     0.002734553
     0.002241759
     0.002448454
    -0.000000265
     0.001658175
     0.001512944
     0.000057217
     0.001877957
     0.001648353
     0.001518984
    -0.000001588
     0.002284774
     0.002973806
     0.002265675
     0.002803248
     0.002534904
     0.002580037
     0.002753990
     0.002854433
     0.001976295
     0.002117388
     0.000012853
     0.002216504
     0.002076192
     0.001338000
     0.002270524
     0.003103520
     0.002335908
     0.002902351
    -0.000000016
     0.002396610
     0.001964554
     0.002669628
     0.000963462
     0.002687036
     0.001156220
     0.000870982
     0.000261498
    -0.000002521
     0.001328347
     0.001203737
     0.001207998
     0.000618962
     0.001961940
     0.002225688
     0.001936076
     0.002174222
     0.002220451
     0.002267432
     0.002312319
     0.002368583
     0.002249254
     0.003006129
     0.002637521
     0.002718124
     0.001487630
    -0.000005716
     0.001847294
     0.000700935
     0.002579416
     0.002880067
     0.001648279
    -0.000000022
     0.001688746
     0.000024388
     0.002523490
     0.002409724
     0.002431564
     0.002812914
     0.002356397
     0.002586083
     0.002006530
     0.002181449
    -0.000000000
     0.002040282
     0.002039384
    -0.000002412
     0.002483743
     0.002486913
     0.002897562
    -0.000001120
     0.002963020
     0.002590228
     0.002071466
     0.002691604
     0.002422522
     0.001900083
     0.000004441
     0.001744030
     0.002319687
     0.001121073
     0.002315742
    -0.000001094
     0.002371688
     0.003199721
     0.002402053
     0.003286282
     0.000006599
    -0.000000007
    -0.000196883
    -0.000160161
    -0.000942806
    -0.000000076
    -0.000516153
     0.000158685
    -0.000001844
    -0.000768232
    -0.000000037
     0.000011200
    -0.000326948
    -0.000563157
    -0.000879758
    -0.000005205
     0.000000489
    -0.000000013
    -0.000000001
    -0.000558228
    -0.000635773
    -0.000118250
    -0.000003799
     0.000002285
    -0.000577594
    -0.000000003
    -0.000620278
    -0.000000001
    -0.000935303
     0.000219329
    -0.000739435
    -0.000830723
     0.000005404
    -0.000703580
    -0.000273578
    -0.000782591
    -0.000343369
    -0.000196388
    -0.000000993
    -0.000004202
    -0.000834845
    -0.000704958
    -0.000430704
    -0.000502623
    -0.000541056
    -0.000592326
    -0.000222022
    -0.000365329
    -0.000418943
    -0.000511948
    -0.000000198
    -0.000007452
    -0.000000023
    -0.000112557
     0.000000766
     0.000400504
     0.000000141
     0.000496892
    -0.000315995
    -0.000258112
    -0.000743482
    -0.000158827
     0.000219009
    -0.000389863
    -0.000543763
    -0.000753409
    -0.000000284
    -0.000000002
    -0.000000844
     0.000000002
    -0.000045444
     0.000044821
    -0.000000274
    -0.000000024
     0.000433987
    -0.000301259
     0.000051834
     0.000199043
     0.000001552
     0.000295054
    -0.000857550
    -0.000791881
     0.000001932
    -0.000947218
    -0.000823163
    -0.000211824
    -0.000572366
    -0.000037805
    -0.000236796
    -0.000623284
     0.000341467
     0.000101569
    -0.000401100
    -0.000739334
    -0.000065012
    -0.000682899
    -0.000353781
    -0.000043614
    -0.000026124
    -0.000295901
     0.000312361
    -0.000036328
     0.000396470
     0.000351857
     0.000288194
    -0.000886141
     0.000010912
    -0.000772526
     0.000000030
    -0.001368911
    -0.001017833
     0.000007887
    -0.000850675
     0.000001278
    -0.000101240
    -0.001050431
     0.000048611
    -0.000193949
    -0.000781489
    -0.000029023
     0.000000001
     0.000179989
    -0.000757404
    -0.000873268
     0.000008099
    -0.000330409
     0.000000001
    -0.000164187
    -0.000317288
    -0.000070548
     0.000341142
    -0.000619599
     0.000008995
    -0.000126780
    -0.000339290
    -0.000051356
    -0.000000105
    -0.000005420
    -0.000291254
    -0.000823222
    -0.000800022
     0.000080479
     0.000082686
    -0.000707803
    -0.000817101
     0.000000002
    -0.000332480
    -0.000049534
    -0.000026859
    -0.001218369
    -0.000292900
    -0.000000000
    -0.000645094
     0.000338908
    -0.000647621
    -0.000279295
    -0.000802940
     0.000069835
     0.000209939
     0.000000936
     0.000619768
    -0.000824484
    -0.000674636
     0.000178868
     0.000059796
    -0.000000027
    -0.000026474
     0.000087743
     0.000157244
     0.000000000
    -0.000000126
     0.000011030
    -0.000005979
     0.000034504
    -0.000000001
    -0.000000000
    -0.000000129
    -0.000039521
    -0.000000235
    -0.000000000
    -0.000010476
    -0.000175173
    -0.000440373
    -0.000000001
    -0.000000069
    -0.000000048
    -0.000000010
     0.000401983
     0.000508458
     0.000426235
     0.000519152
    -0.000125146
     0.000274985
    -0.000098526
     0.000291671
     0.000398316
     0.000047880
     0.000463717
     0.000099623
    -0.000149344
     0.000532050
    -0.000330949
     0.000580246
     0.000002924
     0.000081951
    -0.000003712
    -0.000000009
     0.000303108
     0.000647986
    -0.000055688
     0.000531436
     0.000448463
     0.000402625
     0.000204820
     0.000263475
    -0.000057299
    -0.000000169
     0.000736183
    -0.000000004
    -0.000000000
    -0.000009910
    -0.000000954
    -0.000000043
    -0.000009307
    -0.000000738
    -0.000050858
    -0.000000001
    -0.000281820
    -0.000000000
    -0.000067026
    -0.000210416
     0.000003796
     0.000041293
    -0.000000001
     0.000113336
     0.000000057
     0.000027806
     0.000000023
    -0.000150171
     0.000166307
    -0.000086531
     0.000121964
    -0.000152697
     0.000017471
    -0.000115505
     0.000087261
     0.000644641
    -0.000000002
     0.000750611
    -0.000127004
     0.000205636
     0.000153499
    -0.000370257
    -0.000210069
    -0.000000003
     0.000028151
     0.000000516
     0.000344337
     0.000000001
    -0.000000001
     0.000783708
     0.000180001
     0.000641285
    -0.000048137
    -0.000000832
    -0.000000256
    -0.000134120
    -0.000925374
    -0.000851435
    -0.000061734
    -0.000000319
     0.000081080
     0.000000000
    -0.000681451
    -0.000111004
    -0.000000004
    -0.000486027
     0.000135281
     0.000186355
     0.000264884
    -0.000290775
     0.000036064
    -0.000280568
    -0.000003703
    -0.000002830
    -0.000468889
    -0.000238529
     0.000490807
     0.000589603
     0.000435704
     0.000564722
     0.000417771
     0.000472094
     0.000312477
     0.000378737
    -0.000073806
    -0.000705021
    -0.000024207
    -0.000626588
     0.000664077
     0.000186090
     0.000437354
     0.000034599
     0.000043444
     0.000728108
     0.000296214
     0.000535660
    -0.000027271
    -0.000280803
    -0.000000916
    -0.000514325
    -0.000192590
    -0.000000029
    -0.000000001
    -0.000068675
     0.000116629
    -0.000365813
     0.000150470
     0.000094055
    -0.000183714
     0.000197710
    -0.000000071
    -0.000319167
    -0.000000143
     0.000506103
     0.000009931
     0.000344515
     0.000626816
     0.000734230
     0.000582546
     0.000396047
     0.000363219
    -0.000628068
    -0.000384896
    -0.000000851
     0.000385944
    -0.000265549
     0.000009720
    -0.000413102
     0.000000904
     0.000392110
     0.000261980
    -0.000079884
    -0.000347080
    -0.000513120
    -0.000029980
    -0.000230846
     0.000006004
     0.000000000
     0.000019764
     0.000279889
     0.000001454
     0.000001286
     0.000039882
     0.000448003
    -0.000227691
    -0.000891627
    -0.000065092
    -0.000002871
     0.000010274
     0.000297458
     0.000082399
    -0.000091052
     0.000011596
    -0.000000247
     0.000190321
     0.000696466
     0.000444454
     0.000409943
     0.000000004
     0.000042718
     0.000285766
     0.000416365
    -0.000607754
    -0.000404275
    -0.000219067
    -0.000443284
     0.000597657
     0.000000000
     0.000425745
    -0.000069659
     0.000835906
     0.000156601
     0.000737091
    -0.000000009
    -0.000000014
    -0.000002540
    -0.000336100
    -0.000394836
    -0.000190482
    -0.000000000
     0.000205283
     0.000236460
    -0.000003878
    -0.000419360
    -0.000112684
     0.000965371
     0.000663250
     0.000369732
     0.000000001
     0.000019218
     0.000000241
     0.000501528
    -0.000323776
    -0.000000020
    -0.000261212
    -0.000009171
    -0.000619342
    -0.000133526
    -0.000000003
    -0.000015971
    -0.000234187
    -0.000000005
    -0.000075578
     0.000335627
    -0.000000162
     0.000292157
    -0.000413954
    -0.000009142
     0.000030040
     0.000044374
     0.000308657
     0.000011388
    -0.000000000
     0.000365080
    -0.000091395
    -0.000007765
    -0.000000432
    -0.000235881
    -0.000597110
    -0.000123956
     0.000596141
     0.000601452
     0.000479900
     0.000449457
     0.000644472
     0.000604165
     0.000594704
     0.000524367
    -0.000056263
    -0.000000005
    -0.000147734
    -0.000000063
    -0.000000009
    -0.000000170
     0.000888296
     0.000053707
     0.000610963
     0.000477401
     0.000040249
     0.000875952
     0.000153883
     0.000569812
    -0.000648007
    -0.000000001
    -0.000715804
    -0.000000285
    -0.000205970
    -0.000213709
    -0.000000433
    -0.000003421
    -0.000000000
    -0.000044066
     0.000002722
     0.000517570
     0.000203787
    -0.000168773
     0.000253726
     0.000211630
    -0.000789750
    -0.000387918
     0.000731806
     0.000611742
     0.000008452
     0.000685447
    -0.000000003
     0.000656489
     0.000486261
     0.000880813
     0.000633469
    -0.000013862
    -0.000145341
    -0.000000035
    -0.000000001
    -0.000114773
     0.000007702
     0.000001197
     0.000709158
    -0.000000057
     0.000000649
     0.000000000
     0.000351244
     0.000026960
     0.000460886
    -0.000436430
    -0.000119645
    -0.000012829
    -0.000074948
    -0.000109068
    -0.000436716
     0.000087414
     0.000465952
     0.000179689
    -0.000000163
     0.000000003
     0.000124690
     0.000400742
    -0.000218117
     0.000249144
    -0.000205204
    -0.000496819
     0.000012959
     0.000059124
     0.000297163
     0.000003694
     0.000526271
    -0.000015126
    -0.000000004
    -0.000000004
    -0.000000795
     0.000264874
     0.000000105
     0.000499356
     0.000422057
     0.000589534
     0.000416160
     0.000615744
     0.000529653
    -0.000529016
    -0.000012872
    -0.000473833
    -0.000240639
     0.000847649
     0.000014783
     0.000815796
     0.000511055
     0.000783363
     0.000000000
     0.000647731
    -0.000392029
    -0.000233737
    -0.000012266
    -0.000043059
    -0.000803150
    -0.000641661
     0.000150190
     0.000225247
    -0.000179734
    -0.000322885
     0.000004325
     0.000207630
     0.000051614
     0.000332359
     0.000019662
     0.000301714
     0.000000000
     0.000632718
     0.000626840
    -0.000000107
    -0.000041880
    -0.000000350
    -0.000458073
    -0.000334764
    -0.000444019
    -0.000725891
    -0.000136974
    -0.000171753
    -0.000329321
    -0.000499590
     0.000274893
     0.000246288
    -0.000026742
     0.000028699
    -0.000000038
     0.000008263
     0.000146266
     0.000090606
     0.000340320
     0.000465617
    -0.000010472
    -0.000257729
    -0.000000023
    -0.000025626
    -0.000691036
    -0.000249303
    -0.000012981
    -0.000140607
     0.000449778
     0.000335343
     0.000449133
     0.000332093
     0.000648968
     0.000550035
     0.000655296
     0.000540651
    -0.000000001
     0.000759461
     0.000383517
     0.000765620
     0.000370163
     0.000143844
     0.000691939
     0.000069391
     0.000664375
    -0.000000018
    -0.000036998
    -0.000002220
    -0.000444225
    -0.000892294
    -0.000223110
    -0.000708888
     0.000131402
    -0.000480949
     0.000003982
    -0.000415769
     0.000252061
     0.000240509
    -0.000000003
    -0.000000749
    -0.000000390
    -0.000000001
     0.000689065
     0.000320544
     0.000841153
     0.000534045
    -0.000004403
     0.000581076
     0.000568580
     0.000535449
     0.000629129
    -0.000000018
    -0.000219019
    -0.000827024
    -0.000201122
     0.000955360
    -0.000061624
    -0.000000203
     0.000377967
    -0.000000005
    -0.000014809
    -0.000145149
     0.000001011
     0.000018229
     0.000000000
    -0.000000514
     0.000000001
     0.000138762
     0.000000002
     0.000340395
     0.000001354
     0.000054291
    -0.000149965
    -0.000020475
    -0.000058945
    -0.000193443
    -0.000802637
    -0.000093904
    -0.000514965
    -0.000594656
     0.000062984
     0.000075092
     0.000005671
    -0.000022957
     0.000420136
     0.000398136
    -0.000000727
    -0.000356881
    -0.000000013
    -0.000086183
     0.000202363
     0.000527817
     0.000329285
     0.000543142
     0.000000049
     0.000051409
     0.000000127
     0.000214332
     0.000944381
     0.000262454
     0.000840675
     0.000251710
     0.000139411
     0.000494638
     0.000025280
     0.000482266
    -0.000000004
    -0.000000120
    -0.000000007
    -0.000349730
    -0.000282542
    -0.000065364
    -0.000000254
    -0.000288169
    -0.000013454
    -0.000000049
    -0.000104398
     0.000199103
     0.000242055
    -0.000000004
    -0.000197717
    -0.000225709
     0.000745710
     0.000336611
     0.000958822
    -0.000000000
     0.000000001
     0.000486035
     0.000000357
     0.000045242
    -0.000114592
    -0.000000245
    -0.000000768
    -0.000043056
    -0.000470142
    -0.000355664
    -0.000000367
    -0.000060144
    -0.000312543
     0.000000000
     0.000250971
     0.000182055
    -0.000407745
    -0.000000004
     0.000042146
     0.000039586
    -0.000119328
     0.000293074
     0.000332309
    -0.000002523
    -0.000003761
    -0.000248294
    -0.000210724
    -0.000324732
     0.000484262
     0.000425390
     0.000594247
     0.000563318
     0.000629715
     0.000533241
     0.000663896
     0.000599137
    -0.000550249
    -0.000020128
    -0.000628716
    -0.000061902
    -0.000280422
    -0.000240814
    -0.000000002
     0.000659923
     0.000442370
     0.000900435
     0.000103427
     0.000034524
     0.000567963
     0.000188933
     0.000840921
    -0.000437346
    -0.000000798
    -0.000246499
    -0.000023494
    -0.000690144
    -0.000376026
    -0.000000001
    -0.000000034
     0.000030666
    -0.000000933
     0.000442925
     0.000066494
     0.000324910
    -0.000029097
     0.000155628
     0.000280312
    -0.000285845
    -0.000000060
    -0.000683758
     0.000755321
     0.000573216
     0.000009116
     0.000647872
    -0.000015837
    -0.000054966
     0.000490473
     0.000533646
     0.000688488
     0.000883312
    -0.000330805
    -0.000535457
    -0.000000997
     0.000008667
     0.000147193
     0.000658132
    -0.000060915
     0.000157771
     0.000399867
     0.000507444
     0.000001756
    -0.000205772
     0.000032815
     0.000106499
    -0.000206856
    -0.000026408
    -0.000369813
     0.000568615
     0.000190691
     0.000002407
     0.000001698
     0.000416243
     0.000021794
     0.000000001
    -0.000417673
     0.000168969
    -0.000000004
    -0.000003296
    -0.000065568
     0.000010806
     0.000243498
     0.000078174
    -0.000000004
     0.000462485
     0.000041609
    -0.000000248
     0.000547596
     0.000423927
     0.000062237
     0.000000031
     0.000461897
     0.000572108
     0.000821771
     0.000252460
    -0.000327435
    -0.000192611
    -0.000319639
    -0.000499121
     0.000821370
     0.000448457
     0.000937976
     0.000085087
     0.000584186
     0.000000000
     0.000813366
    -0.000002347
    -0.000000015
    -0.000000008
    -0.000406258
    -0.000000001
    -0.000004461
    -0.000001245
    -0.000144342
    -0.000300052
    -0.000000000
     0.000213188
     0.000151291
    -0.000196510
    -0.000316578
    -0.000001645
     0.000356363
     0.000000549
     0.000011761
     0.000000001
     0.000227452
     0.000624064
     0.000861460
    -0.000010234
    -0.000234656
    -0.000000020
    -0.000300971
     0.000179257
    -0.000209685
    -0.000009762
    -0.000000002
     0.000207017
     0.000151327
     0.000000002
    -0.000076528
    -0.000006203
    -0.000437551
     0.000285062
    -0.000000258
     0.000231440
    -0.000000000
    -0.000005287
     0.000331056
     0.000046394
    -0.000246350
    -0.000000374
    -0.000006590
    -0.000061419
    -0.000039273
     0.000072010
     0.000444317
     0.000576257
     0.000506513
     0.000622833
     0.000311759
     0.000373193
     0.000416149
     0.000462799
    -0.000000111
    -0.000191737
    -0.000000009
    -0.000076078
     0.000443551
     0.000164980
     0.000673599
     0.000043592
     0.000305902
     0.000519342
     0.000023266
     0.000732632
    -0.000000394
    -0.000700228
    -0.000000002
    -0.000677988
    -0.000002303
    -0.000000238
     0.000181070
    -0.000004628
    -0.000000042
     0.000135851
     0.000243257
    -0.000260964
     0.000135430
    -0.000778461
     0.000522391
     0.000010067
     0.000343148
     0.000634296
     0.000577350
     0.000770015
     0.000356228
     0.000477357
    -0.000176069
    -0.000018521
    -0.000000028
     0.000002821
     0.000387966
    -0.000020331
     0.000009496
    -0.000002777
     0.000408254
     0.000017698
     0.000246978
     0.000000000
    -0.000161218
    -0.000493143
    -0.000502881
    -0.000081972
    -0.000078538
    -0.000036957
     0.000293595
     0.000145429
     0.000000002
     0.000000107
     0.000065975
     0.000407791
     0.000063816
     0.000181673
    -0.000274305
     0.000001471
     0.000330900
     0.000000625
     0.000152119
     0.000067844
     0.000015087
    -0.000000704
    -0.000000003
    -0.000000003
    -0.000013568
     0.000437818
     0.000610920
     0.000327560
     0.000549969
     0.000287806
     0.000398321
     0.000000040
     0.000202268
    -0.000272816
    -0.000480776
    -0.000015428
    -0.000576885
     0.000448830
     0.000000000
     0.000541569
     0.000192932
     0.000795249
    -0.000009357
     0.000815344
    -0.000217038
    -0.000361444
    -0.000000000
     0.000000001
    -0.000579941
    -0.000640738
    -0.001579011
    -0.000000119
    -0.001604469
    -0.000119714
    -0.000004919
    -0.000000001
    -0.000151263
    -0.000001156
    -0.001331008
    -0.001385045
    -0.001352493
    -0.001338228
    -0.000052091
    -0.001358754
    -0.000094323
    -0.001386197
    -0.001686753
    -0.001724297
    -0.000000676
    -0.000000251
    -0.001094921
    -0.000008795
    -0.001482575
    -0.001594926
    -0.001216017
    -0.001552750
    -0.001436884
    -0.001098523
    -0.000000750
    -0.001479599
    -0.000031462
    -0.001556209
    -0.002209036
    -0.001613027
    -0.001734106
    -0.000000002
    -0.001591446
    -0.000000033
    -0.001617736
    -0.001682979
    -0.001925056
    -0.001636475
    -0.000005109
    -0.000121867
    -0.000481185
    -0.000905515
    -0.000322435
    -0.001138341
    -0.001547884
    -0.001499748
    -0.001204351
    -0.000711231
    -0.001561632
    -0.000000058
    -0.001650183
    -0.000006077
    -0.000000926
    -0.000000001
    -0.000112615
    -0.000000122
    -0.001477944
    -0.001450610
    -0.001504454
    -0.001441350
    -0.000255820
    -0.001332744
    -0.000014219
    -0.001418100
    -0.001803203
    -0.000000698
    -0.001851925
    -0.000005907
    -0.000001929
    -0.000978932
    -0.000084022
    -0.001480330
    -0.001467456
    -0.000285281
    -0.001590634
    -0.000982193
    -0.000742979
    -0.000000003
    -0.001333390
    -0.000002037
    -0.001679664
    -0.000530459
    -0.001757249
    -0.000903884
    -0.000000007
    -0.001551359
    -0.001600208
    -0.001858392
    -0.000723154
    -0.001678077
    -0.000004969
    -0.000188556
    -0.000870888
    -0.001726761
    -0.000096458
    -0.000674303
    -0.001628939
    -0.001639889
    -0.000255966
    -0.000693990
    -0.000090061
    -0.001556070
    -0.000015629
    -0.001435982
    -0.000000438
    -0.000055811
    -0.000000548
    -0.001333262
    -0.001465087
    -0.001328902
    -0.001433218
    -0.000020033
    -0.001209689
    -0.000007786
    -0.001087463
    -0.000166558
    -0.001750990
    -0.000118034
    -0.001690379
    -0.000001265
    -0.001071867
    -0.000000007
    -0.000463199
    -0.001172716
    -0.001488102
    -0.000712220
    -0.001378137
    -0.000018774
    -0.001128071
    -0.000000276
    -0.000511971
    -0.001336931
    -0.001684332
    -0.001194133
    -0.001593424
    -0.000000001
    -0.001525042
    -0.001393528
    -0.001406204
    -0.001780200
    -0.001580192
    -0.000034797
    -0.000000362
    -0.000455624
    -0.000126051
    -0.000765774
    -0.000141081
    -0.001555712
    -0.001514065
    -0.000739150
    -0.000000001
    -0.001419578
    -0.001516235
    -0.000486919
    -0.000948173
    -0.000070762
    -0.000120520
    -0.000000001
    -0.000000039
    -0.000047730
    -0.000007669
    -0.001489800
    -0.001517274
    -0.001416149
    -0.001441155
    -0.001599599
    -0.001648396
    -0.001407371
    -0.001588366
    -0.001556874
    -0.001581650
    -0.001057250
    -0.001180913
    -0.000043209
    -0.000293206
    -0.000000008
    -0.000001301
    -0.000804110
    -0.001089269
    -0.000010025
    -0.000046400
    -0.000341365
    -0.001096399
    -0.000035488
    -0.000324491
    -0.001619551
    -0.001679763
    -0.001510119
    -0.001527053
    -0.000431511
    -0.001224425
    -0.001640274
    -0.001698690
    -0.001250660
    -0.000107424
    -0.001723494
    -0.001526394
    -0.000000145
    -0.000002680
    -0.000000691
    -0.000655171
    -0.000661692
    -0.000005465
    -0.001581708
    -0.000000054
    -0.001453414
    -0.000000088
    -0.000088702
    -0.000000000
    -0.000000694
    -0.001320921
    -0.001414200
    -0.001326739
    -0.001383947
    -0.001300143
    -0.000388850
    -0.001241191
    -0.000226541
    -0.000005598
    -0.001793546
    -0.000000657
    -0.001731610
    -0.001348170
    -0.000042369
    -0.000862570
    -0.000001078
    -0.000860233
    -0.001467774
    -0.000254720
    -0.001315948
    -0.000001653
    -0.001207700
    -0.000000002
    -0.000637877
    -0.000812916
    -0.001667396
    -0.000486521
    -0.001576032
    -0.001577097
    -0.000001581
    -0.001477338
    -0.000000099
    -0.000667708
    -0.001770633
    -0.001651856
    -0.000000008
    -0.000145377
    -0.000003517
    -0.001075834
    -0.000637745
    -0.000573871
    -0.000081718
    -0.001509749
    -0.001482347
    -0.000714379
    -0.001427255
    -0.000012663
    -0.001447960
    -0.000083590
    -0.000000633
    -0.000064600
    -0.000000503
    -0.001468796
    -0.001379703
    -0.001496113
    -0.001381225
     0.000258452
     0.000017502
    -0.001595344
    -0.000100852
    -0.001616881
    -0.000148312
    -0.000458806
    -0.000000010
    -0.000847765
     0.000000005
    -0.001449169
    -0.000716684
    -0.001520421
    -0.001236245
    -0.000555851
    -0.000000222
    -0.001093315
    -0.000018978
    -0.001620030
    -0.001204013
    -0.001684999
    -0.001387328
    -0.001096756
    -0.000580125
    -0.000000000
    -0.001775846
    -0.001431320
    -0.001234631
    -0.000000483
    -0.000033817
    -0.000054820
     0.000000519
    -0.000145515
    -0.000819517
    -0.001579724
    -0.001607949
